# Data associated with arXiv:2110.09653
# 
# Scale-free velocity distribution, f(E), of a nfw1-0 dark matter distribution (see Eq. 13 and the surrounding discussion)
# 
# Published: 3/29/22, Jack Runburg, contact: runburg@hawaii.edu
# 
# 
# -----------------------------------------------------------------
# 
# 	 tilde E 		 | 		 tilde f
# 
# -----------------------------------------------------------------
4.999966666916665389e-06	7.459600583921072998e+11
5.084478379848520133e-06	7.187508841068686523e+11
5.170418538380237103e-06	6.917087669451896973e+11
5.257811286247489841e-06	6.649442446405861816e+11
5.346681175254475793e-06	6.388587781794173584e+11
5.437053172170461109e-06	6.129285391143480225e+11
5.528952665743044882e-06	5.877756821015675049e+11
5.622405473829764064e-06	5.636550302548226318e+11
5.717437850650368380e-06	5.405242436933726807e+11
5.814076494161556732e-06	5.183426628369373169e+11
5.912348553556311299e-06	4.970713535448992920e+11
6.012281636890092608e-06	4.766729612732807007e+11
6.113903818835718394e-06	4.571116633150210571e+11
6.217243648569482587e-06	4.383531076230546875e+11
6.322330157790336408e-06	4.203643523831737061e+11
6.429192868874767520e-06	4.031138057602342529e+11
6.537861803169358463e-06	3.865711746311768799e+11
6.648367489423461276e-06	3.707074079030108643e+11
6.760740972364509928e-06	3.554946466299854736e+11
6.875013821418025459e-06	3.409061752556539917e+11
6.991218139575197122e-06	3.269163746175074463e+11
7.109386572410078358e-06	3.135006768822465210e+11
7.229552317249357952e-06	3.006355223918848877e+11
7.351749132496946804e-06	2.882983182760151978e+11
7.476011347116110273e-06	2.764673989246175537e+11
7.602373870271986220e-06	2.651219877621622009e+11
7.730872201136798597e-06	2.542421607870378418e+11
7.861542438860996313e-06	2.438088116763106384e+11
7.994421292712631486e-06	2.338036181377693787e+11
8.129546092388319461e-06	2.242090099771456299e+11
8.266954798498142129e-06	2.150081377385616150e+11
8.406686013227985160e-06	2.061848435175401306e+11
8.548778991181851114e-06	1.977236326070877686e+11
8.693273650407367130e-06	1.896096461389143372e+11
8.840210583607773705e-06	1.818286347802602234e+11
8.989631069543074562e-06	1.743669343326491699e+11
9.141577084624118599e-06	1.672114409641943665e+11
9.296091314702276993e-06	1.603495888856170959e+11
9.453217167058613503e-06	1.537693278284429321e+11
9.612998782595416028e-06	1.474591020301839600e+11
9.775481048233723190e-06	1.414078299258608398e+11
9.940709609520515284e-06	1.356048848410706787e+11
1.010873088344859859e-05	1.300400761971214142e+11
1.027959207149342332e-05	1.247036313337983246e+11
1.045334117286983528e-05	1.195861789298335724e+11
1.063002699801310167e-05	1.146787320970111542e+11
1.080969918228750567e-05	1.099726728049312592e+11
1.099240819992653692e-05	1.054597366803153534e+11
1.117820537820882136e-05	1.011319984028234406e+11
1.136714291187321589e-05	9.698185799636116028e+10
1.155927387777779437e-05	9.300202734725065613e+10
1.175465224980613839e-05	8.918551741998165894e+10
1.195333291402578298e-05	8.552562595537117004e+10
1.215537168410254933e-05	8.201592577284681702e+10
1.236082531697525195e-05	7.865025348502857971e+10
1.256975152879548660e-05	7.542269845550996399e+10
1.278220901113630196e-05	7.232759284820874023e+10
1.299825744747511860e-05	6.935950128505197144e+10
1.321795752995467803e-05	6.651321145749636078e+10
1.344137097642753938e-05	6.378372495050708771e+10
1.366856054778823194e-05	6.116624849581866455e+10
1.389959006559822183e-05	5.865618549454455566e+10
1.413452443000885472e-05	5.624912801226789856e+10
1.437342963798667918e-05	5.394084898933406067e+10
1.461637280184707133e-05	5.172729483521690369e+10
1.486342216810048756e-05	4.960457830522035217e+10
1.511464713661749462e-05	4.756897167136004639e+10
1.537011828011726139e-05	4.561690020498406219e+10
1.562990736398520920e-05	4.374493585454978180e+10
1.589408736642576378e-05	4.194979123774598694e+10
1.616273249895500106e-05	4.022831389572338104e+10
1.643591822723999556e-05	3.857748074452407837e+10
1.671372129228959242e-05	3.699439274322882080e+10
1.699621973200365411e-05	3.547626980969213104e+10
1.728349290308593824e-05	3.402044597139711380e+10
1.757562150332706111e-05	3.262436466102844238e+10
1.787268759426421128e-05	3.128557420024997711e+10
1.817477462422304780e-05	3.000172355150230026e+10
1.848196745174931501e-05	2.877055813900833511e+10
1.879435236943567596e-05	2.758991590561820602e+10
1.911201712815146941e-05	2.645772353575591660e+10
1.943505096168135325e-05	2.537199276964100266e+10
1.976354461178003762e-05	2.433081697911322784e+10
2.009759035365054134e-05	2.333236774878320694e+10
2.043728202185218871e-05	2.237489170056135559e+10
2.078271503664673591e-05	2.145670742379607773e+10
2.113398643078881015e-05	2.057620249244553757e+10
2.149119487676938607e-05	1.973183064259144974e+10
2.185444071451891654e-05	1.892210912606645203e+10
2.222382597957828299e-05	1.814561594974118423e+10
2.259945443174592069e-05	1.740098753643558121e+10
2.298143158420802039e-05	1.668691623255091667e+10
2.336986473316135082e-05	1.600214811198465157e+10
2.376486298793558662e-05	1.534548061374590874e+10
2.416653730162493697e-05	1.471576058804281616e+10
2.457500050223656920e-05	1.411188219006150246e+10
2.499036732436496882e-05	1.353278495855858803e+10
2.541275444140161076e-05	1.297745194724810791e+10
2.584228049828771092e-05	1.244490794476881409e+10
2.627906614482085254e-05	1.193421775904137421e+10
2.672323406952309370e-05	1.144448457815513611e+10
2.717490903408167601e-05	1.097484838567151070e+10
2.763421790837073341e-05	1.052448446395295334e+10
2.810128970606421306e-05	1.009260194000125504e+10
2.857625562085062336e-05	9.678442389436792374e+09
2.905924906325835707e-05	9.281278525214618683e+09
2.955040569810354992e-05	8.900412889436962128e+09
3.004986348256928359e-05	8.535176652270819664e+09
3.055776270492842870e-05	8.184928433386762619e+09
3.107424602391961469e-05	7.849053175232855797e+09
3.159945850878786966e-05	7.526961049920234680e+09
3.213354768000181271e-05	7.218086445436590195e+09
3.267666355065716646e-05	6.921886953977047920e+09
3.322895866858017631e-05	6.637842429712290764e+09
3.379058815914069431e-05	6.365454070758384705e+09
3.436170976878883234e-05	6.104243546467998505e+09
3.494248390932582350e-05	5.853752153924768448e+09
3.553307370292206147e-05	5.613540010339593887e+09
3.613364502789559918e-05	5.383185294924450874e+09
3.674436656526227426e-05	5.162283483780274391e+09
3.736540984607252474e-05	4.950446665675206184e+09
3.799694929954593365e-05	4.747302839283391953e+09
3.863916230201919628e-05	4.552495273813696861e+09
3.929222922671936179e-05	4.365681878433105469e+09
3.995633349437695205e-05	4.186534595199618340e+09
4.063166162469399425e-05	4.014738833462622643e+09
4.131840328867923901e-05	3.849992910766977787e+09
4.201675136186785710e-05	3.692007526540541172e+09
4.272690197843771037e-05	3.540505248441937923e+09
4.344905458624000492e-05	3.395220033242086411e+09
4.418341200275753338e-05	3.255896752942593575e+09
4.493018047200704733e-05	3.122290750589802742e+09
4.568956972240246990e-05	2.994167407109024048e+09
4.646179302559299591e-05	2.871301733904205322e+09
4.724706725629517504e-05	2.753477973906900406e+09
4.804561295313286925e-05	2.640489224424273968e+09
4.885765438050504076e-05	2.532137073486170769e+09
4.968341959149553272e-05	2.428231249048429489e+09
5.052314049184557140e-05	2.328589292305483818e+09
5.137705290500395853e-05	2.233036227278336048e+09
5.224539663827518096e-05	2.141404260182648420e+09
5.312841555008319825e-05	2.053532485317646980e+09
5.402635761836880425e-05	1.969266595083232403e+09
5.493947501014186737e-05	1.888458617104075432e+09
5.586802415220507831e-05	1.810966652021572590e+09
5.681226580307127569e-05	1.736654621846358299e+09
5.777246512609308585e-05	1.665392034112162828e+09
5.874889176382569358e-05	1.597053750518321514e+09
5.974181991364382470e-05	1.531519768150435209e+09
6.075152840463267969e-05	1.468675009064293623e+09
6.177830077577675227e-05	1.408409117228365898e+09
6.282242535546537078e-05	1.350616265770626068e+09
6.388419534233940450e-05	1.295194969929642200e+09
6.496390888750069685e-05	1.242047910266509056e+09
6.606186917810706832e-05	1.191081760753050327e+09
6.717838452237692454e-05	1.142207024782039881e+09
6.831376843602559397e-05	1.095337875264554739e+09
6.946833973016001236e-05	1.050392021621795297e+09
7.064242260065327545e-05	1.007290528512824774e+09
7.183634671902636821e-05	9.659577135833067894e+08
7.305044732486104498e-05	9.263209973214993477e+08
7.428506531976992219e-05	8.883107793524057865e+08
7.554054736295056326e-05	8.518603129394665956e+08
7.681724596834820786e-05	8.169055935064638853e+08
7.811551960345769290e-05	7.833852412213486433e+08
7.943573278978744183e-05	7.512403951794401407e+08
8.077825620501836014e-05	7.204146105193083286e+08
8.214346678688167923e-05	6.908537578063355684e+08
8.353174783878771891e-05	6.625059300027550459e+08
8.494348913723383937e-05	6.353213492155362368e+08
8.637908704102024591e-05	6.092522799678323269e+08
8.783894460230737896e-05	5.842529484620013237e+08
8.932347167954070668e-05	5.602794552106058598e+08
9.083308505228021698e-05	5.372897046100292206e+08
9.236820853796081927e-05	5.152433282446562648e+08
9.392927311062019375e-05	4.941016139441460967e+08
9.551671702162569267e-05	4.738274384153538346e+08
9.713098592243203351e-05	4.543852014795482755e+08
9.877253298940824632e-05	4.357407641987162232e+08
1.004418190507626741e-04	4.178613883171511889e+08
1.021393127156075515e-04	4.007156791497144103e+08
1.038654905051929363e-04	3.842735301872789860e+08
1.056208369863511666e-04	3.685060706807463765e+08
1.074058449071861317e-04	3.533856142586749792e+08
1.092210153350457638e-04	3.388856111157161593e+08
1.110668577968167560e-04	3.249806004660223126e+08
1.129438904215777852e-04	3.116461666888767481e+08
1.148526400856553816e-04	2.988588960209925175e+08
1.167936425601170578e-04	2.865963354138699770e+08
1.187674426607472058e-04	2.748369532886807323e+08
1.207745944005445107e-04	2.635601016243558526e+08
1.228156611447842603e-04	2.527459797490288615e+08
1.248912157686886903e-04	2.423755992851862013e+08
1.270018408177465497e-04	2.324307514690594077e+08
1.291481286707312599e-04	2.228939745737693608e+08
1.313306817054566019e-04	2.137485232620229721e+08
1.335501124673205522e-04	2.049783395502831042e+08
1.358070438406815692e-04	1.965680244331212640e+08
1.381021092231148463e-04	1.885028106917080879e+08
1.404359527025981331e-04	1.807685371357883811e+08
1.428092292376724178e-04	1.733516236881842315e+08
1.452226048406331444e-04	1.662390476717890501e+08
1.476767567637959021e-04	1.594183205996538103e+08
1.501723736888928296e-04	1.528774665717388988e+08
1.527101559196495804e-04	1.466050010531462431e+08
1.552908155775968710e-04	1.405899109285793006e+08
1.579150768011707646e-04	1.348216348810805678e+08
1.605836759481537907e-04	1.292900450242344439e+08
1.632973618015188849e-04	1.239854291254679710e+08
1.660568957787249159e-04	1.188984734316807240e+08
1.688630521445276544e-04	1.140202464084640592e+08
1.717166182273617808e-04	1.093421830213861018e+08
1.746183946393538571e-04	1.048560697382259816e+08
1.775691955000281469e-04	1.005540300268655717e+08
1.805698486637626087e-04	9.642851073929636180e+07
1.836211959510650757e-04	9.247226816275407374e+07
1.867240933837241033e-04	8.867835657335375249e+07
1.898794114239063123e-04	8.504011478494299948e+07
1.930880352172620004e-04	8.155115501603235304e+07
1.963508648401065951e-04	7.820535172480267286e+07
1.996688155507472557e-04	7.499683062412224710e+07
2.030428180450184826e-04	7.191995855391043425e+07
2.064738187161059644e-04	6.896933347469590604e+07
2.099627799187183731e-04	6.613977498612871766e+07
2.135106802376891821e-04	6.342631539124274254e+07
2.171185147610761351e-04	6.082419069523248076e+07
2.207872953578353967e-04	5.832883246823761612e+07
2.245180509601469850e-04	5.593585973402313143e+07
2.283118278504634498e-04	5.364107130284983665e+07
2.321696899533706737e-04	5.144043835318478942e+07
2.360927191323271214e-04	4.933009741045019031e+07
2.400820154913739133e-04	4.730634354543869942e+07
2.441386976818912900e-04	4.536562378688157350e+07
2.482639032144876088e-04	4.350453103981754184e+07
2.524587887761063892e-04	4.171979801666644216e+07
2.567245305524329911e-04	4.000829142732468992e+07
2.610623245556987246e-04	3.836700665033185482e+07
2.654733869579571702e-04	3.679306228956034034e+07
2.699589544299391001e-04	3.528369520345748961e+07
2.745202844855641148e-04	3.383625563750761002e+07
2.791586558322111289e-04	3.244820257534800097e+07
2.838753687268419216e-04	3.111709925458179787e+07
2.886717453380665491e-04	2.984060890947145596e+07
2.935491301142636469e-04	2.861649066859751195e+07
2.985088901578362855e-04	2.744259561011463776e+07
3.035524156057246500e-04	2.631686297958920896e+07
3.086811200162599997e-04	2.523731659758467227e+07
3.138964407624783592e-04	2.420206136071509495e+07
3.191998394319943378e-04	2.320927995558997244e+07
3.245928022335382922e-04	2.225722961433132365e+07
3.300768404102812992e-04	2.134423906448022276e+07
3.356534906600379289e-04	2.046870568011628091e+07
3.413243155624835876e-04	1.962909254175076634e+07
3.470909040134793487e-04	1.882392577796214819e+07
3.529548716666380619e-04	1.805179205456284806e+07
3.589178613822402138e-04	1.731133599851808697e+07
3.649815436836249295e-04	1.660125785159680061e+07
3.711476172211778703e-04	1.592031120583658293e+07
3.774178092440349098e-04	1.526730074971663393e+07
3.837938760796410186e-04	1.464108028762622923e+07
3.902776036212757564e-04	1.404055060895891860e+07
3.968708078236900076e-04	1.346465762796635740e+07
4.035753352069784239e-04	1.291239049525685981e+07
4.103930633688248350e-04	1.238277985161416605e+07
4.173259015052585932e-04	1.187489611432347633e+07
4.243757909400526040e-04	1.138784783223820105e+07
4.315447056629209059e-04	1.092078014141897857e+07
4.388346528766370099e-04	1.047287325629750453e+07
4.462476735532370955e-04	1.004334102429735102e+07
4.537858429994455923e-04	9.631429553764482960e+06
4.614512714314750988e-04	9.236415884886901826e+06
4.692461045593572522e-04	8.857606725802320987e+06
4.771725241809475536e-04	8.494337228310031816e+06
4.852327487857809843e-04	8.145969827481472865e+06
4.934290341689138819e-04	7.811893113618414849e+06
5.017636740549350372e-04	7.491520768184012733e+06
5.102390007322968237e-04	7.184290535361418501e+06
5.188573856981406988e-04	6.889663219083138742e+06
5.276212403137819310e-04	6.607121753199701197e+06
5.365330164710311982e-04	6.336170288334647194e+06
5.455952072695193205e-04	6.076333316456493922e+06
5.548103477052123691e-04	5.827154846139055677e+06
5.641810153702900808e-04	5.588197590136303566e+06
5.737098311645750376e-04	5.359042219226133078e+06
5.833994600186936724e-04	5.139286558649743907e+06
5.932526116291626317e-04	4.928545009841664694e+06
6.032720412055894710e-04	4.726447746112100780e+06
6.134605502301789361e-04	4.532640128726893105e+06
6.238209872297490952e-04	4.346782067750878632e+06
6.343562485604500910e-04	4.168547428900303319e+06
6.450692792053947661e-04	3.997623457319504116e+06
6.559630735854016280e-04	3.833710234387840144e+06
6.670406763830648289e-04	3.676520140971463174e+06
6.783051833803593238e-04	3.525777365027051885e+06
6.897597423100013028e-04	3.381217408212950453e+06
7.014075537207746644e-04	3.242586624687967822e+06
7.132518718570551169e-04	3.109641775511857122e+06
7.252960055527524338e-04	2.982149602356554940e+06
7.375433191398972441e-04	2.859886415348269511e+06
7.499972333721088239e-04	2.742637704848995432e+06
7.626612263631753642e-04	2.630197762071040459e+06
7.755388345409922881e-04	2.522369316019189078e+06
7.886336536170855411e-04	2.418963191311427392e+06
8.019493395719871085e-04	2.319797973858810030e+06
8.154896096566942396e-04	2.224699692491910420e+06
8.292582434104725855e-04	2.133501514017709531e+06
8.432590836952606403e-04	2.046043449766981415e+06
8.574960377469322253e-04	1.962172075084040407e+06
8.719730782436861151e-04	1.881740260163738858e+06
8.866942443918196526e-04	1.804606911393057089e+06
9.016636430291738837e-04	1.730636723345478065e+06
9.168854497465110708e-04	1.659699944487313973e+06
9.323639100271108142e-04	1.591672142572723329e+06
9.481033404048684089e-04	1.526433992905012332e+06
9.641081296411751610e-04	1.463871065724433167e+06
9.803827399208868421e-04	1.403873626030524028e+06
9.969317080676515491e-04	1.346336440976518206e+06
1.013759646778922881e-03	1.291158595113706542e+06
1.030871245880940435e-03	1.238243311018846696e+06
1.048271273603998324e-03	1.187497785461994587e+06
1.065964577878302259e-03	1.138833020538624143e+06
1.083956087650744153e-03	1.092163668314976851e+06
1.102250814222902791e-03	1.047407883676480153e+06
1.120853852610594536e-03	1.004487179485442583e+06
1.139770382925316258e-03	9.633262875601149863e+05
1.159005671777897477e-03	9.238530282748145983e+05
1.178565073704708260e-03	8.859981827801215695e+05
1.198454032616761344e-03	8.496953718146944884e+05
1.218678083272056734e-03	8.148809395233844407e+05
1.239242852771515503e-03	7.814938410628073616e+05
1.260154062078868396e-03	7.494755360259447480e+05
1.281417527564838142e-03	7.187698858052559663e+05
1.303039162576007104e-03	6.893230545739230001e+05
1.325024979028716771e-03	6.610834146382014733e+05
1.347381089028385067e-03	6.340014567492951173e+05
1.370113706514614667e-03	6.080297023710317444e+05
1.393229148932475896e-03	5.831226202463596128e+05
1.416733838930358006e-03	5.592365475575358141e+05
1.440634306084765705e-03	5.363296126325400546e+05
1.464937188652478328e-03	5.143616605676918989e+05
1.489649235350457663e-03	4.932941846192803350e+05
1.514777307163920955e-03	4.730902567678193445e+05
1.540328379182981551e-03	4.537144644159909221e+05
1.566309542468285023e-03	4.351328473081541015e+05
1.592728005946055132e-03	4.173128382254811004e+05
1.619591098332963603e-03	4.002232059555478627e+05
1.646906270091287507e-03	3.838340003415155807e+05
1.674681095414752834e-03	3.681164996390587185e+05
1.702923274245530432e-03	3.530431602783025592e+05
1.731640634322816931e-03	3.385875684885179508e+05
1.760841133263454277e-03	3.247243937987065292e+05
1.790532860675051905e-03	3.114293450883533224e+05
1.820724040302044815e-03	2.986791271925853216e+05
1.851423032205189731e-03	2.864514006417374476e+05
1.882638334974937174e-03	2.747247422515336657e+05
1.914378587979173596e-03	2.634786073654767824e+05
1.946652573645797852e-03	2.526932943354250165e+05
1.979469219780630521e-03	2.423499089004179114e+05
2.012837601921134856e-03	2.324303326044924906e+05
2.046766945726440513e-03	2.229171895906192658e+05
2.081266629404178534e-03	2.137938167299749330e+05
2.116346186174620277e-03	2.050442344209019502e+05
2.152015306772636118e-03	1.966531182983523759e+05
2.188283841987973335e-03	1.886057725960642274e+05
2.225161805244380529e-03	1.808881042362077569e+05
2.262659375218096375e-03	1.734865980967690703e+05
2.300786898496226182e-03	1.663882935876349802e+05
2.339554892275523199e-03	1.595807607809046167e+05
2.378974047102136707e-03	1.530520807890368160e+05
2.419055229652839964e-03	1.467908227922641963e+05
2.459809485558280516e-03	1.407860244514386868e+05
2.501248042268815371e-03	1.350271737655268807e+05
2.543382311963456217e-03	1.295041892876187922e+05
2.586223894502510164e-03	1.242074031527333864e+05
2.629784580424420794e-03	1.191275439480866771e+05
2.674076353987432739e-03	1.142557204066158447e+05
2.719111396256591526e-03	1.095834059490307118e+05
2.764902088236675416e-03	1.051024235785639030e+05
2.811461014051608743e-03	1.008049316322639061e+05
2.858800964170942187e-03	9.668341003614309011e+04
2.906934938683986783e-03	9.273064697257685475e+04
2.955876150622129862e-03	8.893972641694943013e+04
3.005638029329979130e-03	8.530401592788347625e+04
3.056234223885872202e-03	8.181715500156623602e+04
3.107678606572350077e-03	7.847304390220774803e+04
3.159985276397182623e-03	7.526583303279432585e+04
3.213168562665521134e-03	7.218991263838803570e+04
3.267243028603802890e-03	6.923990294962529151e+04
3.322223475035931180e-03	6.641064479033283715e+04
3.378124944112401249e-03	6.369719046473686467e+04
3.434962723092902133e-03	6.109479520859048353e+04
