# Data associated with arXiv:2110.09653
# 
# Scale-free velocity distribution, f(E), of a nfw1-25 dark matter distribution (see Eq. 13 and the surrounding discussion)
# 
# Published: 3/29/22, Jack Runburg, contact: runburg@hawaii.edu
# 
# 
# -----------------------------------------------------------------
# 
# 	 tilde E 		 | 		 tilde f
# 
# -----------------------------------------------------------------
1.354874302393243093e-04	1.841446212543050537e+11
1.372013798751747088e-04	1.776553999007094421e+11
1.389370111658966593e-04	1.712229691972010498e+11
1.406945983825145640e-04	1.648711245710069580e+11
1.424744192653686439e-04	1.586938415559068909e+11
1.442767550679924368e-04	1.525573340969070129e+11
1.461018906015490947e-04	1.466036414448447266e+11
1.479501142798257196e-04	1.408822975633147278e+11
1.498217181647998873e-04	1.353842401254929504e+11
1.517169980127803641e-04	1.301007445122710419e+11
1.536362533211310709e-04	1.250234425666377258e+11
1.555797873755877803e-04	1.201442873826954956e+11
1.575479072981704736e-04	1.154555460262664490e+11
1.595409240957042078e-04	1.109497874836416168e+11
1.615591527089502784e-04	1.066198706125358734e+11
1.636029120623620466e-04	1.024589330397321320e+11
1.656725251144675970e-04	9.846038019428199768e+10
1.677683189088887143e-04	9.461787482714244080e+10
1.698906246260083208e-04	9.092532697122634888e+10
1.720397776352865921e-04	8.737688445051710510e+10
1.742161175482432071e-04	8.396692342010348511e+10
1.764199882721044846e-04	8.069003946061480713e+10
1.786517380641338380e-04	7.754103909795434570e+10
1.809117195866452241e-04	7.451493160838240051e+10
1.832002899627128653e-04	7.160692091344143677e+10
1.855178108325879812e-04	6.881239827879849243e+10
1.878646484108240458e-04	6.612693442530322266e+10
1.902411735441293271e-04	6.354627350372414398e+10
1.926477617699457346e-04	6.106632539429613495e+10
1.950847933757734348e-04	5.868315964771219635e+10
1.975526534592397711e-04	5.639299928824531555e+10
2.000517319889330895e-04	5.419221463805449677e+10
2.025824238660017384e-04	5.207731773767940521e+10
2.051451289865320149e-04	5.004495672203772736e+10
2.077402523047180115e-04	4.809191054132133484e+10
2.103682038968248281e-04	4.621508387006035614e+10
2.130293990259654775e-04	4.441150215522087860e+10
2.157242582076919729e-04	4.267830692921375275e+10
2.184532072764187568e-04	4.101275129881102753e+10
2.212166774526853571e-04	3.941219555511467743e+10
2.240151054112663473e-04	3.787410301527019501e+10
2.268489333501470958e-04	3.639603598864879608e+10
2.297186090603653050e-04	3.497565192237673950e+10
2.326245859967430063e-04	3.361069966976942062e+10
2.355673233495037509e-04	3.229901595388213348e+10
2.385472861167998808e-04	3.103852191784546280e+10
2.415649451781612628e-04	2.982721983084217072e+10
2.446207773688598478e-04	2.866318992888582230e+10
2.477152655552243717e-04	2.754458736169367981e+10
2.508488987109042741e-04	2.646963929378653717e+10
2.540221719940969855e-04	2.543664205463503265e+10
2.572355868257489363e-04	2.444395852546354294e+10
2.604896509687495867e-04	2.349001526762104416e+10
2.637848786081225974e-04	2.257330055101762009e+10
2.671217904322301323e-04	2.169236146053071213e+10
2.705009137150076967e-04	2.084580180622807693e+10
2.739227823992316764e-04	2.003227989309698868e+10
2.773879371808458732e-04	1.925050639635837936e+10
2.808969255943469787e-04	1.849924230318803024e+10
2.844503020992551734e-04	1.777729694461465454e+10
2.880486281676731554e-04	1.708352613527109337e+10
2.916924723729515437e-04	1.641683033632594681e+10
2.953824104794788700e-04	1.577615292547984886e+10
2.991190255335994660e-04	1.516047849434755135e+10
3.029029079556873273e-04	1.456883128454651070e+10
3.067346556333759534e-04	1.400027361228676987e+10
3.106148740159727327e-04	1.345390438089288521e+10
3.145441762100622098e-04	1.292885767016186905e+10
3.185231830763161237e-04	1.242430134864276695e+10
3.225525233275322807e-04	1.193943575386195755e+10
3.266328336279039428e-04	1.147349243519790459e+10
3.307647586935516613e-04	1.102573293891772842e+10
3.349489513943165785e-04	1.059544761968541336e+10
3.391860728568477264e-04	1.018195453286933899e+10
3.434767925689861381e-04	9.784598348097911835e+09
3.478217884854671875e-04	9.402749300842420578e+09
3.522217471349639237e-04	9.035802215672283173e+09
3.566773637284742743e-04	8.683175527054035187e+09
3.611893422690853482e-04	8.344310372939328194e+09
3.657583956631163557e-04	8.018669689619322777e+09
3.703852458326724003e-04	7.705737381276776314e+09
3.750706238296156489e-04	7.405017492606207848e+09
3.798152699509738822e-04	7.116033427887186050e+09
3.846199338558142365e-04	6.838327178505949974e+09
3.894853746835830037e-04	6.571458618584452629e+09
3.944123611739495439e-04	6.315004801260794640e+09
3.994016717881539885e-04	6.068559278822668076e+09
4.044540948318967846e-04	5.831731468615182877e+09
4.095704285797730675e-04	5.604146031006783485e+09
4.147514814012782025e-04	5.385442274913305283e+09
4.199980718884117675e-04	5.175273583562767982e+09
4.253110289848823595e-04	4.973306869503421783e+09
4.306911921169524196e-04	4.779222042509037971e+09
4.361394113259281719e-04	4.592711505421012878e+09
4.416565474023284501e-04	4.413479664643160820e+09
4.472434720217413552e-04	4.241242464164687634e+09
4.529010678824003499e-04	4.075726928484792709e+09
4.586302288444948048e-04	3.916670743163249969e+09
4.644318600712371158e-04	3.763821823740715981e+09
4.703068781717220062e-04	3.616937926691782951e+09
4.762562113455651148e-04	3.475786264156318665e+09
4.822807995293943210e-04	3.340143128801033497e+09
4.883815945451717468e-04	3.209793546486192703e+09
4.945595602503956561e-04	3.084530930759085178e+09
5.008156726901934197e-04	2.964156759825410843e+09
5.071509202513359033e-04	2.848480258044648647e+09
5.135663038181982696e-04	2.737318094051686764e+09
5.200628369306811803e-04	2.630494092197835445e+09
5.266415459441343028e-04	2.527838956336309433e+09
5.333034701912897114e-04	2.429189986276529789e+09
5.400496621462387917e-04	2.334390843177533627e+09
5.468811875904864769e-04	2.243291283667907715e+09
5.537991257810871530e-04	2.155746926986776829e+09
5.608045696209149229e-04	2.071619030017148018e+09
5.678986258310686659e-04	1.990774262478041410e+09
5.750824151254647996e-04	1.913084497940830946e+09
5.823570723876227324e-04	1.838426610309803247e+09
5.897237468496800868e-04	1.766682277876153469e+09
5.971836022736754217e-04	1.697737796380066156e+09
6.047378171351032276e-04	1.631483900458077431e+09
6.123875848087969188e-04	1.567815588414463997e+09
6.201341137571430781e-04	1.506631955160162926e+09
6.279786277206818139e-04	1.447836034222762108e+09
6.359223659111001674e-04	1.391334645538815498e+09
6.439665832066610723e-04	1.337038240991415739e+09
6.521125503501021270e-04	1.284860770205297232e+09
6.603615541490184902e-04	1.234719540588431597e+09
6.687148976787843282e-04	1.186535086883935928e+09
6.771739004880173666e-04	1.140231044116043568e+09
6.857398988066485627e-04	1.095734028307367802e+09
6.944142457566031875e-04	1.052973518731652737e+09
7.031983115651373357e-04	1.011881747453074813e+09
7.120934837808730149e-04	9.723935907841309309e+08
7.211011674925400534e-04	9.344464667354837656e+08
7.302227855504907477e-04	8.979802356639775038e+08
7.394597787909883320e-04	8.629371047293448448e+08
7.488136062633386596e-04	8.292615368886133432e+08
7.582857454598642289e-04	7.969001616208306551e+08
7.678776925487953639e-04	7.658016925862880945e+08
7.775909626100761633e-04	7.359168433551411629e+08
7.874270898741517893e-04	7.071982527794173956e+08
7.973876279637622487e-04	6.796004061231223345e+08
8.074741501387712895e-04	6.530795662827229500e+08
8.176882495440939477e-04	6.275937020602371693e+08
8.280315394607301160e-04	6.031024234823600054e+08
8.385056535599687538e-04	5.795669160592257977e+08
8.491122461607876742e-04	5.569498806307847500e+08
8.598529924904944454e-04	5.352154731748962998e+08
8.707295889486504729e-04	5.143292488978441358e+08
8.817437533743077531e-04	4.942581069603409767e+08
8.928972253166229164e-04	4.749702385122634768e+08
9.041917663088624383e-04	4.564350760458738804e+08
9.156291601458642869e-04	4.386232447556521297e+08
9.272112131649867979e-04	4.215065165008459687e+08
9.389397545305916155e-04	4.050577644983609319e+08
9.508166365221094873e-04	3.892509208650048375e+08
9.628437348257186217e-04	3.740609349227478504e+08
9.750229488297062954e-04	3.594637334397018552e+08
9.873562019235340975e-04	3.454361829562649131e+08
9.998454418006536438e-04	3.319560525482808948e+08
1.012492640765162970e-03	3.190019791857286096e+08
1.025299796042281487e-03	3.065534332298045754e+08
1.038268930092749089e-03	2.945906863263964057e+08
1.051402090931162232e-03	2.830947796418805122e+08
1.064701352448329565e-03	2.720474959849911332e+08
1.078168814737655171e-03	2.614313263299381733e+08
1.091806604425644154e-03	2.512294469443497956e+08
1.105616875006542937e-03	2.414256899755641818e+08
1.119601807181193429e-03	2.320045186824283302e+08
1.133763609200141376e-03	2.229510026875809729e+08
1.148104517211044878e-03	2.142507940059647560e+08
1.162626795610463733e-03	2.058901049437204599e+08
1.177332737400039152e-03	1.978556856560314894e+08
1.192224664547174209e-03	1.901348034727675021e+08
1.207304928350215467e-03	1.827152225765525103e+08
1.222575909808231841e-03	1.755851846197101772e+08
1.238040019995435576e-03	1.687333903075290024e+08
1.253699700440283078e-03	1.621489811038110554e+08
1.269557423509359894e-03	1.558215223344992697e+08
1.285615692796047461e-03	1.497409865128294528e+08
1.301877043514098036e-03	1.438977374607936144e+08
1.318344042896114985e-03	1.382825151611338556e+08
1.335019290597048601e-03	1.328864208541217595e+08
1.351905419102741477e-03	1.277009031091687083e+08
1.369005094143595008e-03	1.227177441413643062e+08
1.386321015113426607e-03	1.179290470907379836e+08
1.403855915493556691e-03	1.133272229536944777e+08
1.421612563282236659e-03	1.089049791470914483e+08
1.439593761429427184e-03	1.046553076036719233e+08
1.457802348277039816e-03	1.005714736925022751e+08
1.476241198004683060e-03	9.664700554670795798e+07
1.494913221080990595e-03	9.287568437496562302e+07
1.513821364720602074e-03	8.925153321952420473e+07
1.532968613346849009e-03	8.576880900881627202e+07
1.552357989060253922e-03	8.242199260439842939e+07
1.571992552112863595e-03	7.920578028095047176e+07
1.591875401388535014e-03	7.611507523275804520e+07
1.612009674889217396e-03	7.314497963253033161e+07
1.632398550227312246e-03	7.029078672990027070e+07
1.653045245124203175e-03	6.754797351591800153e+07
1.673953017914986277e-03	6.491219344087226689e+07
1.695125168059544597e-03	6.237926954240810871e+07
1.716565036659973642e-03	5.994518812053461373e+07
1.738276006984488479e-03	5.760609172003477812e+07
1.760261504997866601e-03	5.535827367853485793e+07
1.782524999898511386e-03	5.319817191811235249e+07
1.805070004662228051e-03	5.112236339419613034e+07
1.827900076592761137e-03	4.912755861169839650e+07
1.851018817879236406e-03	4.721059647101411968e+07
1.874429876160519075e-03	4.536843923657207191e+07
1.898136945096634120e-03	4.359816771176813543e+07
1.922143764947295465e-03	4.189697661948100477e+07
1.946454123157652719e-03	4.026217016678790748e+07
1.971071854951339779e-03	3.869115776192806661e+07
1.996000843930892128e-03	3.718144989463458210e+07
2.021245022685668521e-03	3.573065423397894204e+07
2.046808373407317007e-03	3.433647178999233246e+07
2.072694928512914484e-03	3.299669328671582043e+07
2.098908771275856573e-03	3.170919571651529521e+07
2.125454036464594944e-03	3.047193884175767750e+07
2.152334910989324012e-03	2.928296208408198133e+07
2.179555634556684229e-03	2.814038143590213358e+07
2.207120500332646323e-03	2.704238621832710877e+07
2.235033855613580405e-03	2.598723666431573406e+07
2.263300102505698148e-03	2.497326075747295097e+07
2.291923698612914010e-03	2.399885174043967202e+07
2.320909157733250846e-03	2.306246558976662531e+07
2.350261050563888770e-03	2.216261851531413198e+07
2.379984005414941851e-03	2.129788464304231107e+07
2.410082708932122664e-03	2.046689373799612001e+07
2.440561906828324617e-03	1.966832903706501797e+07
2.471426404624297701e-03	1.890092516486067325e+07
2.502681068398489219e-03	1.816346612555097044e+07
2.534330825546166153e-03	1.745478338466002420e+07
2.566380665547954038e-03	1.677375399428982288e+07
2.598835640747841798e-03	1.611929884447724000e+07
2.631700867140875869e-03	1.549038092071807571e+07
2.664981525170519779e-03	1.488600370758317783e+07
2.698682860535935469e-03	1.430520951203931496e+07
2.732810185009190273e-03	1.374707808867823705e+07
2.767368877262575601e-03	1.321072508955310285e+07
2.802364383706149650e-03	1.269530063319052383e+07
2.837802219335574822e-03	1.219998804315872677e+07
2.873687968590471920e-03	1.172400249963911436e+07
2.910027286223289787e-03	1.126658981645154394e+07
2.946825898178946287e-03	1.082702523461301811e+07
2.984089602485246254e-03	1.040461227792989463e+07
3.021824270154301918e-03	9.998681648620883003e+06
3.060035846095039962e-03	9.608590169996354729e+06
3.098730350036897098e-03	9.233719764106232673e+06
3.137913877464935768e-03	8.873476468282815069e+06
3.177592600566375193e-03	8.527289512483235449e+06
3.217772769188821397e-03	8.194610382877253927e+06
3.258460711810197506e-03	7.874911975309797563e+06
3.299662836520609373e-03	7.567687764599107206e+06
3.341385632016243262e-03	7.272450983518047258e+06
3.383635668605437796e-03	6.988733861378382891e+06
3.426419599227096754e-03	6.716086883866490796e+06
3.469744160481527239e-03	6.454078073366531171e+06
3.513616173673957382e-03	6.202292310787851922e+06
3.558042545870744415e-03	5.960330692433839664e+06
3.603030270968534624e-03	5.727809854743577540e+06
3.648586430776464950e-03	5.504361407596122473e+06
3.694718196111577112e-03	5.289631341597103514e+06
3.741432827907599078e-03	5.083279451577641070e+06
3.788737678337211409e-03	4.884978815226143226e+06
3.836640191948045234e-03	4.694415265310431831e+06
3.885147906812445699e-03	4.511286894123644568e+06
3.934268455691276693e-03	4.335303576359052211e+06
3.984009567211811535e-03	4.166186505499366205e+06
4.034379067060027933e-03	4.003667760745178442e+06
4.085384879187292477e-03	3.847489872548202053e+06
4.137035027031684027e-03	3.697405412315747235e+06
4.189337634754227054e-03	3.553176619904761668e+06
4.242300928489960328e-03	3.414575002834773157e+06
4.295933237614269450e-03	3.281380992066325620e+06
4.350242996024424220e-03	3.153383580318883527e+06
4.405238743436718125e-03	3.030379998206201941e+06
4.460929126699176954e-03	2.912175387734160293e+06
4.517322901120178306e-03	2.798582496068058070e+06
4.574428931813016679e-03	2.689421374630092643e+06
4.632256195056743721e-03	2.584519099784777965e+06
4.690813779673316634e-03	2.483709496165553574e+06
4.750110888421339196e-03	2.386832865542431828e+06
4.810156839406551539e-03	2.293735752457167022e+06
4.870961067509240426e-03	2.204270680011401419e+06
4.932533125828764305e-03	2.118295939242001623e+06
4.994882687145377025e-03	2.035675333434142172e+06
5.058019545399556650e-03	1.956277990945613943e+06
5.121953617189035392e-03	1.879978146683976986e+06
5.186694943283679839e-03	1.806654942223799881e+06
5.252253690158464362e-03	1.736192231094062561e+06
5.318640151544723298e-03	1.668478407591425814e+06
5.385864749999853644e-03	1.603406212367729284e+06
5.453938038495730230e-03	1.540872577432108577e+06
5.522870702025913132e-03	1.480778451877322048e+06
5.592673559232029003e-03	1.423028654019316193e+06
5.663357564049348834e-03	1.367531714331855299e+06
5.734933807371910865e-03	1.314199732957966626e+06
5.807413518737264933e-03	1.262948239203770179e+06
5.880808068031204323e-03	1.213696059771350352e+06
5.955128967212542333e-03	1.166365187325555366e+06
6.030387872058221542e-03	1.120880659872593125e+06
6.106596583928989956e-03	1.077170439129357692e+06
6.183767051555772408e-03	1.035165300436034915e+06
6.261911372782231512e-03	9.947987170110777952e+05
6.341041796639779703e-03	9.560067571187701542e+05
6.421170724844742737e-03	9.187279876886608545e+05
6.502310713895050574e-03	8.829033717311056098e+05
6.584474476909599368e-03	8.484761743787938030e+05
6.667674885543767825e-03	8.153918743481250713e+05
6.751924971927132819e-03	7.835980795451654121e+05
6.837237930623793654e-03	7.530444413423013175e+05
6.923627120615313650e-03	7.236825748786142794e+05
7.011106067306745702e-03	6.954659863601626130e+05
7.099688464555793839e-03	6.683499885296325665e+05
7.189388176725367528e-03	6.422916477019860176e+05
7.280219240759856596e-03	6.172496993871420855e+05
7.372195868285220423e-03	5.931844904700169573e+05
7.465332447733293887e-03	5.700579150257795118e+05
7.559643546490301368e-03	5.478333540838656481e+05
7.655143913070090560e-03	5.264756177330063656e+05
7.751848479312112121e-03	5.059508884876523516e+05
7.849772362604446121e-03	4.862266690384881222e+05
7.948930868132178876e-03	4.672717295409709914e+05
8.049339491151245515e-03	4.490560589165500714e+05
8.151013919288010653e-03	4.315508171998119797e+05
8.253970034865028629e-03	4.147282893691287027e+05
8.358223917252787308e-03	3.985618418606227497e+05
8.463791845248222132e-03	3.830258805815566448e+05
8.570690299479570215e-03	3.680958097860058770e+05
8.678935964838591435e-03	3.537479932311950251e+05
8.788545732939806107e-03	3.399597173399172025e+05
8.899536704606957407e-03	3.267091541995497537e+05
9.011926192387666526e-03	3.139753280992385698e+05
9.125731723095496448e-03	3.017380811548857600e+05
9.240971040380343768e-03	2.899780427324151970e+05
9.357662107327557530e-03	2.786765970149316709e+05
9.475823109085014864e-03	2.678158553978350828e+05
9.595472455519756319e-03	2.573786266571944579e+05
9.716628783903303104e-03	2.473483904430962866e+05
9.839310961626499333e-03	2.377092709590846789e+05
9.963538088943861906e-03	2.284460118179079145e+05
1.008932950174789948e-02	2.195439518949129269e+05
1.021670477437325829e-02	2.109890022374378459e+05
1.034568372235583449e-02	2.027676231636525481e+05
1.047628640558554911e-02	1.948668032559473941e+05
1.060853313078961510e-02	1.872740390177686641e+05
1.074244445472304597e-02	1.799773148010107107e+05
1.087804118706330384e-02	1.729650835371894063e+05
1.101534439339985419e-02	1.662262487272529106e+05
1.115437539825524411e-02	1.597501467505562468e+05
1.129515578813805772e-02	1.535265300217977201e+05
1.143770741462810450e-02	1.475455506828793441e+05
1.158205239749389263e-02	1.417977452547907596e+05
1.172821312784243404e-02	1.362740193272570032e+05
1.187621227130214278e-02	1.309656331433604792e+05
1.202607277123836013e-02	1.258641882591253670e+05
1.217781785200232510e-02	1.209616135666962946e+05
1.233147102221317758e-02	1.162501529111668497e+05
1.248705607807384758e-02	1.117223527550032304e+05
1.264459710672051138e-02	1.073710503577937634e+05
1.280411848960605857e-02	1.031893622522999794e+05
1.296564490591756505e-02	9.917067369167658035e+04
1.312920133602835625e-02	9.530862785939378955e+04
1.329481306498417857e-02	9.159711593552485283e+04
1.346250568602440877e-02	8.803026739702881605e+04
1.363230510413777907e-02	8.460244077586114872e+04
1.380423753965331207e-02	8.130821464038632985e+04
1.397832953186628653e-02	7.814237905510541168e+04
1.415460794269941640e-02	7.509992725232733937e+04
1.433309996039973562e-02	7.217604794889954792e+04
1.451383310327071692e-02	6.936611731478814909e+04
1.469683522344036007e-02	6.666569203783720150e+04
1.488213451066489924e-02	6.407050206495407474e+04
1.506975949616854576e-02	6.157644393191716517e+04
1.525973905651928364e-02	5.917957424079997872e+04
1.545210241754071089e-02	5.687610339298697363e+04
1.564687915826014700e-02	5.466238962808074575e+04
1.584409921489309328e-02	5.253493319807611260e+04
1.604379288486396452e-02	5.049037093126714171e+04
1.624599083086330706e-02	4.852547077864238236e+04
1.645072408494149471e-02	4.663712677582007746e+04
1.665802405263885552e-02	4.482235409435157635e+04
1.686792251715252614e-02	4.307828439543797867e+04
1.708045164346659595e-02	4.140216113285518804e+04
1.729564398287051705e-02	3.979133526712419552e+04
1.751353247683582262e-02	3.824326110735425027e+04
1.773415046158460795e-02	3.675549231315842189e+04
1.795753167237754480e-02	3.532567788173368899e+04
1.818371024789973769e-02	3.395155852366320323e+04
