# Data associated with arXiv:2110.09653
# 
# Scale-free gravitational potential, Phi(r), of a nfw1-25 dark matter distribution (see Eq. 12 and the surrounding discussion)
# 
# Published: 3/29/22, Jack Runburg, contact: runburg@hawaii.edu
# 
# 
# -----------------------------------------------------------------
# 
# 	 tilde r 		 | 		 tilde Phi
# 
# -----------------------------------------------------------------
1.000000000000000082e-05	1.354874302393243093e-04
1.016902569856036418e-05	1.372013798751747088e-04
1.034090836579813217e-05	1.389370111658966593e-04
1.051569629182590727e-05	1.406945983825145640e-04
1.069343858298338107e-05	1.424744192653686439e-04
1.087418517563349352e-05	1.442767550679924368e-04
1.105798685019213608e-05	1.461018906015490947e-04
1.124489524539464294e-05	1.479501142798257196e-04
1.143496287280373749e-05	1.498217181647998873e-04
1.162824313156251011e-05	1.517169980127803641e-04
1.182479032339672186e-05	1.536362533211310709e-04
1.202465966787094358e-05	1.555797873755877803e-04
1.222790731790219642e-05	1.575479072981704736e-04
1.243459037553620304e-05	1.595409240957042078e-04
1.264476690798990365e-05	1.615591527089502784e-04
1.285849596396550032e-05	1.636029120623620466e-04
1.307583759024001738e-05	1.656725251144675970e-04
1.329685284853523648e-05	1.677683189088887143e-04
1.352160383267306994e-05	1.698906246260083208e-04
1.375015368602047702e-05	1.720397776352865921e-04
1.398256661922970337e-05	1.742161175482432071e-04
1.421890792827791775e-05	1.764199882721044846e-04
1.445924401281218556e-05	1.786517380641338380e-04
1.470364239480425140e-05	1.809117195866452241e-04
1.495217173752060936e-05	1.832002899627128653e-04
1.520490186481353606e-05	1.855178108325879812e-04
1.546190378073772831e-05	1.878646484108240458e-04
1.572324968949899453e-05	1.902411735441293271e-04
1.598901301573965207e-05	1.926477617699457346e-04
1.625926842516730133e-05	1.950847933757734348e-04
1.653409184553174079e-05	1.975526534592397711e-04
1.681356048795696318e-05	2.000517319889330895e-04
1.709775286863338809e-05	2.025824238660017384e-04
1.738674883087671066e-05	2.051451289865320149e-04
1.768062956756000055e-05	2.077402523047180115e-04
1.797947764392438726e-05	2.103682038968248281e-04
1.828337702077590442e-05	2.130293990259654775e-04
1.859241307807381921e-05	2.157242582076919729e-04
1.890667263891824960e-05	2.184532072764187568e-04
1.922624399394281931e-05	2.212166774526853571e-04
1.955121692611963820e-05	2.240151054112663473e-04
1.988168273598394005e-05	2.268489333501470958e-04
2.021773426728446277e-05	2.297186090603653050e-04
2.055946593306806188e-05	2.326245859967430063e-04
2.090697374220454717e-05	2.355673233495037509e-04
2.126035532636048084e-05	2.385472861167998808e-04
2.161970996742848953e-05	2.415649451781612628e-04
2.198513862542019826e-05	2.446207773688598478e-04
2.235674396683105304e-05	2.477152655552243717e-04
2.273463039348393747e-05	2.508488987109042741e-04
2.311890407186101566e-05	2.540221719940969855e-04
2.350967296293065580e-05	2.572355868257489363e-04
2.390704685247916156e-05	2.604896509687495867e-04
2.431113738195477895e-05	2.637848786081225974e-04
2.472205807983296721e-05	2.671217904322301323e-04
2.513992439351238667e-05	2.705009137150076967e-04
2.556485372174920653e-05	2.739227823992316764e-04
2.599696544764047972e-05	2.773879371808458732e-04
2.643638097216418787e-05	2.808969255943469787e-04
2.688322374828698802e-05	2.844503020992551734e-04
2.733761931564792142e-05	2.880486281676731554e-04
2.779969533582839453e-05	2.916924723729515437e-04
2.826958162821882354e-05	2.953824104794788700e-04
2.874741020649071774e-05	2.991190255335994660e-04
2.923331531568612113e-05	3.029029079556873273e-04
2.972743346993304866e-05	3.067346556333759534e-04
3.022990349079926684e-05	3.106148740159727327e-04
3.074086654629380722e-05	3.145441762100622098e-04
3.126046619052763072e-05	3.185231830763161237e-04
3.178884840404535552e-05	3.225525233275322807e-04
3.232616163483768439e-05	3.266328336279039428e-04
3.287255684004812447e-05	3.307647586935516613e-04
3.342818752838356790e-05	3.349489513943165785e-04
3.399320980324275641e-05	3.391860728568477264e-04
3.456778240657304527e-05	3.434767925689861381e-04
3.515206676346841592e-05	3.478217884854671875e-04
3.574622702752206616e-05	3.522217471349639237e-04
3.635043012694450139e-05	3.566773637284742743e-04
3.696484581146223093e-05	3.611893422690853482e-04
3.758964670000808795e-05	3.657583956631163557e-04
3.822500832921870388e-05	3.703852458326724003e-04
3.887110920275097572e-05	3.750706238296156489e-04
3.952813084143210176e-05	3.798152699509738822e-04
4.019625783425803943e-05	3.846199338558142365e-04
4.087567789025284005e-05	3.894853746835830037e-04
4.156658189120576708e-05	3.944123611739495439e-04
4.226916394529853092e-05	3.994016717881539885e-04
4.298362144164019741e-05	4.044540948318967846e-04
4.371015510572303796e-05	4.095704285797730675e-04
4.444896905581571312e-05	4.147514814012782025e-04
4.520027086031053377e-05	4.199980718884117675e-04
4.596427159603870473e-05	4.253110289848823595e-04
4.674118590757267352e-05	4.306911921169524196e-04
4.753123206752940771e-05	4.361394113259281719e-04
4.833463203789430644e-05	4.416565474023284501e-04
4.915161153238073493e-05	4.472434720217413552e-04
4.998240007984356624e-05	4.529010678824003499e-04
5.082723108876559525e-05	4.586302288444948048e-04
5.168634191283236288e-05	4.644318600712371158e-04
5.255997391761710167e-05	4.703068781717220062e-04
5.344837254839108326e-05	4.762562113455651148e-04
5.435178739908172257e-05	4.822807995293943210e-04
5.527047228239525742e-05	4.883815945451717468e-04
5.620468530112457639e-05	4.945595602503956561e-04
5.715468892066349253e-05	5.008156726901934197e-04
5.812075004274504757e-05	5.071509202513359033e-04
5.910314008042789533e-05	5.135663038181982696e-04
6.010213503434843707e-05	5.200628369306811803e-04
6.111801557026345553e-05	5.266415459441343028e-04
6.215106709790228898e-05	5.333034701912897114e-04
6.320157985115178797e-05	5.400496621462387917e-04
6.426984896959787321e-05	5.468811875904864769e-04
6.535617458144342038e-05	5.537991257810871530e-04
6.646086188782971240e-05	5.608045696209149229e-04
6.758422124858115099e-05	5.678986258310686659e-04
6.872656826940111863e-05	5.750824151254647996e-04
6.988822389054047174e-05	5.823570723876227324e-04
7.106951447696465861e-05	5.897237468496800868e-04
7.227077191004629639e-05	5.971836022736754217e-04
7.349233368080552791e-05	6.047378171351032276e-04
7.473454298472863809e-05	6.123875848087969188e-04
7.599774881818697982e-05	6.201341137571430781e-04
7.728230607648789517e-05	6.279786277206818139e-04
7.858857565358148443e-05	6.359223659111001674e-04
7.991692454345255051e-05	6.439665832066610723e-04
8.126772594322802224e-05	6.521125503501021270e-04
8.264135935802465773e-05	6.603615541490184902e-04
8.403821070757165439e-05	6.687148976787843282e-04
8.545867243463269578e-05	6.771739004880173666e-04
8.690314361526321394e-05	6.857398988066485627e-04
8.837203007092955202e-05	6.944142457566031875e-04
8.986574448252320402e-05	7.031983115651373357e-04
9.138470650630395851e-05	7.120934837808730149e-04
9.292934289180014931e-05	7.211011674925400534e-04
9.450008760170456993e-05	7.302227855504907477e-04
9.609738193379394305e-05	7.394597787909883320e-04
9.772167464491231779e-05	7.488136062633386596e-04
9.937342207704681467e-05	7.582857454598642289e-04
1.010530882855375953e-04	7.678776925487953639e-04
1.027611451694522251e-04	7.775909626100761633e-04
1.044980726041651943e-04	7.874270898741517893e-04
1.062643585761784858e-04	7.973876279637622487e-04
1.080604993202192510e-04	8.074741501387712895e-04
1.098869994586575572e-04	8.176882495440939477e-04
1.117443721432778697e-04	8.280315394607301160e-04
1.136331391994486811e-04	8.385056535599687538e-04
1.155538312727281931e-04	8.491122461607876742e-04
1.175069879779481330e-04	8.598529924904944454e-04
1.194931580508180820e-04	8.707295889486504729e-04
1.215128995020904455e-04	8.817437533743077531e-04
1.235667797743341897e-04	8.928972253166229164e-04
1.256553759013554958e-04	9.041917663088624383e-04
1.277792746703147969e-04	9.156291601458642869e-04
1.299390727865835948e-04	9.272112131649867979e-04
1.321353770413874452e-04	9.389397545305916155e-04
1.343688044822834680e-04	9.508166365221094873e-04
1.366399825865173903e-04	9.628437348257186217e-04
1.389495494373137348e-04	9.750229488297062954e-04
1.412981539031428761e-04	9.873562019235340975e-04
1.436864558200198782e-04	9.998454418006536438e-04
1.461151261768842277e-04	1.012492640765162970e-03
1.485848473041125864e-04	1.025299796042281487e-03
1.510963130652191798e-04	1.038268930092749089e-03
1.536502290517936125e-04	1.051402090931162232e-03
1.562473127817378576e-04	1.064701352448329565e-03
1.588882939008491742e-04	1.078168814737655171e-03
1.615739143878149021e-04	1.091806604425644154e-03
1.643049287626683534e-04	1.105616875006542937e-03
1.670821042987704773e-04	1.119601807181193429e-03
1.699062212383743503e-04	1.133763609200141376e-03
1.727780730118311508e-04	1.148104517211044878e-03
1.756984664605053779e-04	1.162626795610463733e-03
1.786682220634525510e-04	1.177332737400039152e-03
1.816881741679340619e-04	1.192224664547174209e-03
1.847591712238235014e-04	1.207304928350215467e-03
1.878820760219775598e-04	1.222575909808231841e-03
1.910577659366365815e-04	1.238040019995435576e-03
1.942871331719188508e-04	1.253699700440283078e-03
1.975710850124866975e-04	1.269557423509359894e-03
2.009105440784431595e-04	1.285615692796047461e-03
2.043064485845435532e-04	1.301877043514098036e-03
2.077597526037827484e-04	1.318344042896114985e-03
2.112714263354412516e-04	1.335019290597048601e-03
2.148424563776607336e-04	1.351905419102741477e-03
2.184738460046266035e-04	1.369005094143595008e-03
2.221666154484372088e-04	1.386321015113426607e-03
2.259218021857336319e-04	1.403855915493556691e-03
2.297404612291798821e-04	1.421612563282236659e-03
2.336236654238643619e-04	1.439593761429427184e-03
2.375725057487147664e-04	1.457802348277039816e-03
2.415880916230062926e-04	1.476241198004683060e-03
2.456715512180506823e-04	1.494913221080990595e-03
2.498240317741551374e-04	1.513821364720602074e-03
2.540466999229345113e-04	1.532968613346849009e-03
2.583407420150777146e-04	1.552357989060253922e-03
2.627073644536481322e-04	1.571992552112863595e-03
2.671477940330213769e-04	1.591875401388535014e-03
2.716632782835508839e-04	1.612009674889217396e-03
2.762550858220584886e-04	1.632398550227312246e-03
2.809245067082517420e-04	1.653045245124203175e-03
2.856728528071605542e-04	1.673953017914986277e-03
2.905014581577071149e-04	1.695125168059544597e-03
2.954116793474984839e-04	1.716565036659973642e-03
3.004048958939589458e-04	1.738276006984488479e-03
3.054825106319022541e-04	1.760261504997866601e-03
3.106459501076553839e-04	1.782524999898511386e-03
3.158966649798455200e-04	1.805070004662228051e-03
3.212361304269563162e-04	1.827900076592761137e-03
3.266658465617811426e-04	1.851018817879236406e-03
3.321873388528732334e-04	1.874429876160519075e-03
3.378021585531251671e-04	1.898136945096634120e-03
3.435118831355896260e-04	1.922143764947295465e-03
3.493181167366675791e-04	1.946454123157652719e-03
3.552224906067888996e-04	1.971071854951339779e-03
3.612266635687054364e-04	1.996000843930892128e-03
3.673323224835388411e-04	2.021245022685668521e-03
3.735411827246973185e-04	2.046808373407317007e-03
3.798549886598084251e-04	2.072694928512914484e-03
3.862755141407951480e-04	2.098908771275856573e-03
3.928045630022363724e-04	2.125454036464594944e-03
3.994439695681523583e-04	2.152334910989324012e-03
4.061955991673505371e-04	2.179555634556684229e-03
4.130613486574917070e-04	2.207120500332646323e-03
4.200431469580040238e-04	2.235033855613580405e-03
4.271429555920115370e-04	2.263300102505698148e-03
4.343627692374198417e-04	2.291923698612914010e-03
4.417046162873167637e-04	2.320909157733250846e-03
4.491705594198478857e-04	2.350261050563888770e-03
4.567626961777168084e-04	2.379984005414941851e-03
4.644831595574927248e-04	2.410082708932122664e-03
4.723341186088662533e-04	2.440561906828324617e-03
4.803177790440425624e-04	2.471426404624297701e-03
4.884363838574312710e-04	2.502681068398489219e-03
4.966922139558113680e-04	2.534330825546166153e-03
5.050875887991499369e-04	2.566380665547954038e-03
5.136248670522445235e-04	2.598835640747841798e-03
5.223064472473935762e-04	2.631700867140875869e-03
5.311347684582509721e-04	2.664981525170519779e-03
5.401123109850867847e-04	2.698682860535935469e-03
5.492415970516181150e-04	2.732810185009190273e-03
5.585251915136241153e-04	2.767368877262575601e-03
5.679657025795404723e-04	2.802364383706149650e-03
5.775657825432239500e-04	2.837802219335574822e-03
5.873281285291183634e-04	2.873687968590471920e-03
5.972554832499969713e-04	2.910027286223289787e-03
6.073506357775315233e-04	2.946825898178946287e-03
6.176164223258701069e-04	2.984089602485246254e-03
6.280557270484683893e-04	3.021824270154301918e-03
6.386714828483902292e-04	3.060035846095039962e-03
6.494666722022935214e-04	3.098730350036897098e-03
6.604443279983617009e-04	3.137913877464935768e-03
6.716075343883770371e-04	3.177592600566375193e-03
6.829594276542177208e-04	3.217772769188821397e-03
6.945031970889825731e-04	3.258460711810197506e-03
7.062420858930204982e-04	3.299662836520609373e-03
7.181793920851009278e-04	3.341385632016243262e-03
7.303184694289851413e-04	3.383635668605437796e-03
7.426627283756636558e-04	3.426419599227096754e-03
7.552156370215079703e-04	3.469744160481527239e-03
7.679807220826359018e-04	3.513616173673957382e-03
7.809615698857278474e-04	3.558042545870744415e-03
7.941618273756021005e-04	3.603030270968534624e-03
8.075852031398165869e-04	3.648586430776464950e-03
8.212354684505887787e-04	3.694718196111577112e-03
8.351164583243314002e-04	3.741432827907599078e-03
8.492320725990840828e-04	3.788737678337211409e-03
8.635862770301777234e-04	3.836640191948045234e-03
8.781831044043956558e-04	3.885147906812445699e-03
8.930266556729828109e-04	3.934268455691276693e-03
9.081211011037989590e-04	3.984009567211811535e-03
9.234706814529467173e-04	4.034379067060027933e-03
9.390797091562086895e-04	4.085384879187292477e-03
9.549525695406079406e-04	4.137035027031684027e-03
9.710937220564705170e-04	4.189337634754227054e-03
9.875077015302894702e-04	4.242300928489960328e-03
1.004199119438780371e-03	4.295933237614269450e-03
1.021172665204465608e-03	4.350242996024424220e-03
1.038433107513160114e-03	4.405238743436718125e-03
1.055985295653722377e-03	4.460929126699176954e-03
1.073834160880457900e-03	4.517322901120178306e-03
1.091984717798539194e-03	4.574428931813016679e-03
1.110442065772854507e-03	4.632256195056743721e-03
1.129211390360662605e-03	4.690813779673316634e-03
1.148297964768467102e-03	4.750110888421339196e-03
1.167707151333511727e-03	4.810156839406551539e-03
1.187444403030319794e-03	4.870961067509240426e-03
1.207515265002700490e-03	4.932533125828764305e-03
1.227925376121640280e-03	4.994882687145377025e-03
1.248680470569537605e-03	5.058019545399556650e-03
1.269786379451208914e-03	5.121953617189035392e-03
1.291249032432127903e-03	5.186694943283679839e-03
1.313074459404352896e-03	5.252253690158464362e-03
1.335268792180613557e-03	5.318640151544723298e-03
1.357838266217031810e-03	5.385864749999853644e-03
1.380789222364966172e-03	5.453938038495730230e-03
1.404128108652453718e-03	5.522870702025913132e-03
1.427861482095777682e-03	5.592673559232029003e-03
1.451996010541646868e-03	5.663357564049348834e-03
1.476538474540514635e-03	5.734933807371910865e-03
1.501495769251562883e-03	5.807413518737264933e-03
1.526874906379880551e-03	5.880808068031204323e-03
1.552683016146397385e-03	5.955128967212542333e-03
1.578927349291094897e-03	6.030387872058221542e-03
1.605615279110095620e-03	6.106596583928989956e-03
1.632754303527175332e-03	6.183767051555772408e-03
1.660352047200289172e-03	6.261911372782231512e-03
1.688416263663707062e-03	6.341041796639779703e-03
1.716954837506350865e-03	6.421170724844742737e-03
1.745975786586963620e-03	6.502310713895050574e-03
1.775487264286699802e-03	6.584474476909599368e-03
1.805497561799810540e-03	6.667674885543767825e-03
1.836015110463037458e-03	6.751924971927132819e-03
1.867048484124379315e-03	6.837237930623793654e-03
1.898606401551900620e-03	6.923627120615313650e-03
1.930697728883249645e-03	7.011106067306745702e-03
1.963331482116591892e-03	7.099688464555793839e-03
1.996516829643624896e-03	7.189388176725367528e-03
2.030263094825430960e-03	7.280219240759856596e-03
2.064579758611852570e-03	7.372195868285220423e-03
2.099476462205150749e-03	7.465332447733293887e-03
2.134963009768679927e-03	7.559643546490301368e-03
2.171049371181348660e-03	7.655143913070090560e-03
2.207745684838647703e-03	7.751848479312112121e-03
2.245062260500998302e-03	7.849772362604446121e-03
2.283009582190270292e-03	7.948930868132178876e-03
2.321598311135244109e-03	8.049339491151245515e-03
2.360839288766866315e-03	8.151013919288010653e-03
2.400743539764126078e-03	8.253970034865028629e-03
2.441322275151419988e-03	8.358223917252787308e-03
2.482586895448264750e-03	8.463791845248222132e-03
2.524548993872262424e-03	8.570690299479570215e-03
2.567220359596177753e-03	8.678935964838591435e-03
2.610612981060093842e-03	8.788545732939806107e-03
2.654739049339540410e-03	8.899536704606957407e-03
2.699610961570552640e-03	9.011926192387666526e-03
2.745241324432623389e-03	9.125731723095496448e-03
2.791642957690524101e-03	9.240971040380343768e-03
2.838828897796003177e-03	9.357662107327557530e-03
2.886812401550338004e-03	9.475823109085014864e-03
2.935606949828818354e-03	9.595472455519756319e-03
2.985226251368169013e-03	9.716628783903303104e-03
3.035684246617996723e-03	9.839310961626499333e-03
3.086995111657330013e-03	9.963538088943861906e-03
3.139173262177360861e-03	1.008932950174789948e-02
3.192233357531519197e-03	1.021670477437325829e-02
3.246190304853968818e-03	1.034568372235583449e-02
3.301059263247754609e-03	1.047628640558554911e-02
3.356855648043719550e-03	1.060853313078961510e-02
3.413595135131412741e-03	1.074244445472304597e-02
3.471293665363201029e-03	1.087804118706330384e-02
3.529967449032819348e-03	1.101534439339985419e-02
3.589632970429635240e-03	1.115437539825524411e-02
3.650306992469857896e-03	1.129515578813805772e-02
3.712006561406061729e-03	1.143770741462810450e-02
3.774749011616297320e-03	1.158205239749389263e-02
3.838551970474150202e-03	1.172821312784243404e-02
3.903433363301120080e-03	1.187621227130214278e-02
3.969411418402700453e-03	1.202607277123836013e-02
4.036504672189604979e-03	1.217781785200232510e-02
4.104731974385511864e-03	1.233147102221317758e-02
4.174112493322873658e-03	1.248705607807384758e-02
4.244665721328222743e-03	1.264459710672051138e-02
4.316411480198500787e-03	1.280411848960605857e-02
4.389369926769958255e-03	1.296564490591756505e-02
4.463561558581177410e-03	1.312920133602835625e-02
4.539007219631814756e-03	1.329481306498417857e-02
4.615728106238700494e-03	1.346250568602440877e-02
4.693745772990876204e-03	1.363230510413777907e-02
4.773082138805334954e-03	1.380423753965331207e-02
4.853759493085097083e-03	1.397832953186628653e-02
4.935800501981372872e-03	1.415460794269941640e-02
5.019228214761578891e-03	1.433309996039973562e-02
5.104066070284974874e-03	1.451383310327071692e-02
5.190337903587798063e-03	1.469683522344036007e-02
5.278067952579629761e-03	1.488213451066489924e-02
5.367280864853020243e-03	1.506975949616854576e-02
5.458001704608171807e-03	1.525973905651928364e-02
5.550255959694683563e-03	1.545210241754071089e-02
5.644069548772311269e-03	1.564687915826014700e-02
5.739468828592763153e-03	1.584409921489309328e-02
5.836480601404602127e-03	1.604379288486396452e-02
5.935132122483251921e-03	1.624599083086330706e-02
6.035451107788337120e-03	1.645072408494149471e-02
6.137465741750428375e-03	1.665802405263885552e-02
6.241204685189401941e-03	1.686792251715252614e-02
6.346697083366644419e-03	1.708045164346659595e-02
6.453972574173352621e-03	1.729564398287051705e-02
6.563061296457267831e-03	1.751353247683582262e-02
6.673993898490092683e-03	1.773415046158460795e-02
6.786801546578089504e-03	1.795753167237754480e-02
6.901515933818189001e-03	1.818371024789973769e-02
