# Data associated with arXiv:2110.09653
# 
# Scale-free J-factor angular distribution, J_S(theta), of a nfw1-1 dark matter distribution (see Eq. 8 and the surrounding discussion)
# 
# Published: 3/29/22, Jack Runburg, contact: runburg@hawaii.edu
# 
# 
# -----------------------------------------------------------------
# 
# 	 tilde theta 		 | 	 tilde J s-wave 		 | 	 tilde J p-wave 		 | 	 tilde J d-wave 		 | 	 tilde J sommerfeld 
# 
# -----------------------------------------------------------------
1.000000000000000021e-03	5.462778147972901024e+03	2.018206037491297309e+02	5.059510739558314185e+01	6.434950023282822076e+04
1.021192151037671062e-03	5.325859148682231535e+03	1.996938498074996460e+02	5.033165944709815420e+01	6.216090542365817964e+04
1.042833409340945643e-03	5.192402335686096194e+03	1.975851865366474271e+02	5.006868644926841938e+01	6.004764475741784554e+04
1.064933292458827233e-03	5.062223241297483582e+03	1.954933656820966235e+02	4.980608143995495141e+01	5.800533082337876112e+04
1.087501519637659123e-03	4.935262821033764340e+03	1.934185652457358060e+02	4.954386826144502010e+01	5.603191937770564255e+04
1.110548016095517111e-03	4.811485107334467102e+03	1.913612020944111691e+02	4.928209518356830188e+01	5.412602606509244652e+04
1.134082917387199208e-03	4.690835282955577895e+03	1.893214971161789890e+02	4.902079184250504085e+01	5.228581288479804789e+04
1.158116573861711456e-03	4.573149512083507034e+03	1.872984304169606276e+02	4.875986389067978166e+01	5.050750127799479378e+04
1.182659555214217667e-03	4.458374534428358857e+03	1.852919110834410219e+02	4.849932157117424936e+01	4.878922409164452256e+04
1.207722655134462354e-03	4.346479049462837793e+03	1.833022687163467026e+02	4.823921026347164798e+01	4.712969788454700029e+04
1.233316896053688856e-03	4.237409448073236490e+03	1.813296659894193397e+02	4.797955456471323288e+01	4.552724167131178547e+04
1.259453533992170365e-03	4.131020244015719982e+03	1.793731888516264803e+02	4.772026546968431404e+01	4.397859046226223290e+04
1.286144063509461061e-03	4.027263397132048340e+03	1.774330159705338872e+02	4.746136807579016903e+01	4.248241720763293415e+04
1.313400222759557485e-03	3.926111677337663423e+03	1.755094301112790447e+02	4.720290616242250792e+01	4.103742265681304707e+04
1.341233998653187541e-03	3.827513005678219997e+03	1.736023053717031246e+02	4.694488576010270009e+01	3.964211568739986251e+04
1.369657632129505243e-03	3.731338213027768234e+03	1.717107786736349340e+02	4.668722202447686698e+01	3.829362420983165066e+04
1.398683623539492566e-03	3.637543970209834697e+03	1.698350130603412538e+02	4.642993974108729560e+01	3.699070478720532992e+04
1.428324738143458596e-03	3.546106595110633862e+03	1.679754274619026546e+02	4.617309103016747684e+01	3.573240032783196511e+04
1.458594011725036863e-03	3.456975784107220534e+03	1.661320665334400246e+02	4.591668955188112733e+01	3.451744993251389678e+04
1.489504756324154782e-03	3.370036875189593047e+03	1.643038954507834148e+02	4.566063949512022901e+01	3.334327434994321084e+04
1.521070566091505720e-03	3.285250790738169599e+03	1.624909653216792549e+02	4.540495880843280929e+01	3.220875918157353226e+04
1.553305323267072666e-03	3.202596939120330717e+03	1.606936880352361072e+02	4.514970091828441667e+01	3.111309553896732541e+04
1.586223204285366938e-03	3.122026972387333899e+03	1.589120915638309270e+02	4.489487747422975872e+01	3.005504495205300918e+04
1.619838686010041055e-03	3.043439124497879220e+03	1.571454374004534600e+02	4.464041226379760730e+01	2.903260870168565452e+04
1.654166552100628336e-03	2.966798154396693462e+03	1.553937654452295760e+02	4.438632248604428554e+01	2.804472935736631553e+04
1.689221899514206692e-03	2.892086160864467274e+03	1.536572701416251618e+02	4.413264796101108800e+01	2.709072054057308560e+04
1.725020145144853453e-03	2.819256877491396608e+03	1.519359148088348093e+02	4.387939387895885091e+01	2.616941012943067835e+04
1.761577032603788440e-03	2.748220000170889762e+03	1.502290031979960077e+02	4.362648746788468657e+01	2.527905847753288617e+04
1.798908639143220224e-03	2.678943749727690829e+03	1.485366913462799516e+02	4.337395454652300941e+01	2.441879028558653590e+04
1.837031382726912916e-03	2.611412565586969322e+03	1.468593618845669369e+02	4.312184905170804683e+01	2.358810723103776763e+04
1.875962029250603357e-03	2.545582343528170441e+03	1.451967588805269145e+02	4.287015849170939674e+01	2.278587778747400444e+04
1.915717699915417882e-03	2.481372964962812148e+03	1.435481179567658216e+02	4.261880475307146554e+01	2.201059384444522220e+04
1.956315878757565116e-03	2.418755774492643013e+03	1.419136028653220762e+02	4.236781469105201836e+01	2.126151075438111366e+04
1.997774420337589726e-03	2.357717246477232493e+03	1.402936075070527124e+02	4.211724510436955882e+01	2.053813353497823482e+04
2.040111557592579582e-03	2.298215482179758510e+03	1.386880660768252085e+02	4.186709686514818429e+01	1.983956356417246570e+04
2.083345909854779961e-03	2.240179412648734797e+03	1.370962347301077386e+02	4.161729245149640377e+01	1.916447908823727630e+04
2.127496491040134757e-03	2.183583200960303202e+03	1.355180791590485683e+02	4.136784240217140507e+01	1.851222792682220461e+04
2.172582718010372237e-03	2.128415089594221172e+03	1.339539779958239194e+02	4.111880319877098344e+01	1.788233794362055414e+04
2.218624419112281976e-03	2.074635397648941307e+03	1.324038261406868742e+02	4.087017083130738371e+01	1.727402614367711794e+04
2.265641842897974604e-03	2.022181095289211953e+03	1.308670539593799447e+02	4.062188276388393149e+01	1.668615127736363502e+04
2.313655667029933423e-03	1.971028888529891219e+03	1.293437717966191087e+02	4.037396296449507815e+01	1.611820194583337252e+04
2.362687007374795686e-03	1.921168555127473383e+03	1.278341601020227216e+02	4.012645151049787984e+01	1.556972915743143858e+04
2.412757427289825233e-03	1.872562619256907738e+03	1.263380156143559105e+02	3.987933457134144533e+01	1.504003336929880788e+04
2.463888947106213784e-03	1.825155191271575177e+03	1.248548227721328345e+02	3.963255447104781837e+01	1.452812705777991505e+04
2.516104053813336943e-03	1.778925271322832032e+03	1.233847143871810346e+02	3.938613725585813086e+01	1.403354661875568490e+04
2.569425710948245768e-03	1.733863969444332952e+03	1.219280694512450509e+02	3.914014238717745542e+01	1.355596020374044747e+04
2.623877368694733318e-03	1.689935982138537383e+03	1.204845769402613627e+02	3.889454404666471277e+01	1.309471877586789742e+04
2.679482974196439188e-03	1.647091760190018249e+03	1.190536119185727699e+02	3.864927374215954359e+01	1.264897501623541029e+04
2.736266982088478034e-03	1.605312373511648957e+03	1.176353025706561510e+02	3.840435752063458352e+01	1.221829953670638315e+04
2.794254365252289707e-03	1.564590087447955966e+03	1.162300449545219578e+02	3.815985840905406690e+01	1.180243523081607418e+04
2.853470625798387814e-03	1.524891721929709547e+03	1.148376557164075535e+02	3.791576277522369764e+01	1.140078701946018373e+04
2.913941806281861776e-03	1.486173357221968217e+03	1.134575620171733021e+02	3.767200520943373476e+01	1.101265105735435100e+04
2.975694501155571117e-03	1.448417930237888640e+03	1.120897461945665867e+02	3.742859605836621029e+01	1.063763024337889692e+04
3.038755868466027146e-03	1.411618707572680705e+03	1.107345481299298768e+02	3.718559326490714767e+01	1.027551704119160968e+04
3.103153641797168783e-03	1.375744571425251706e+03	1.093917748730578552e+02	3.694298066530040359e+01	9.925761340332990585e+03
3.168916142467233243e-03	1.340756599162261409e+03	1.080610151462532968e+02	3.670071166706965471e+01	9.587778237407741472e+03
3.236072291984112663e-03	1.306639411815100630e+03	1.067423409776622520e+02	3.645880810482673695e+01	9.261229946371124242e+03
3.304651624764658874e-03	1.273387143273081620e+03	1.054359289605714025e+02	3.621731066954385625e+01	8.945916633804512458e+03
3.374684301123556836e-03	1.240970667162470818e+03	1.041415215078120298e+02	3.597619368369371529e+01	8.641356544052614481e+03
3.446201120537424525e-03	1.209355495913837103e+03	1.028587304595335468e+02	3.573541213676510608e+01	8.347039870000862720e+03
3.519233535190044709e-03	1.178527769629993372e+03	1.015876943617146111e+02	3.549499703883923019e+01	8.062691720291129968e+03
3.593813663804625805e-03	1.148482372845444615e+03	1.003287407672486182e+02	3.525500853790209277e+01	7.788135637147111993e+03
3.669974305769219299e-03	1.119192093045060574e+03	9.908144852903160427e+01	3.501539954100200447e+01	7.522935636435989181e+03
3.747748955561452412e-03	1.090626378066180905e+03	9.784540067234713945e+01	3.477611941715553456e+01	7.266646347786801925e+03
3.827171817478984984e-03	1.062772738112901152e+03	9.662072080270837660e+01	3.453719789041279142e+01	7.019043298783153659e+03
3.908277820682117681e-03	1.035626707126446718e+03	9.540777155056360925e+01	3.429870184890794604e+01	6.779962178192788087e+03
3.991102634555192957e-03	1.009162903952426177e+03	9.420628331981417602e+01	3.406060380034094948e+01	6.549043532368937122e+03
4.075682684393532908e-03	9.833542678067959741e+02	9.301576427842229577e+01	3.382284257939488725e+01	6.325879047487975186e+03
4.162055167422817371e-03	9.581895445449532644e+02	9.183624945026630826e+01	3.358543583028777135e+01	6.110271699774402805e+03
4.250258069157961290e-03	9.336648296333695498e+02	9.066809830898286293e+01	3.334845141677686087e+01	5.902083075677975103e+03
4.340330180108637088e-03	9.097564877228742262e+02	8.951103861301396591e+01	3.311185895690539382e+01	5.700999263436348883e+03
4.432311112838861061e-03	8.864405548542881661e+02	8.836476141290668807e+01	3.287562279783498553e+01	5.506682999791196380e+03
4.526241319388085715e-03	8.637068912490434514e+02	8.722922897901727879e+01	3.263975009051175391e+01	5.318945794998730889e+03
4.622162109061505458e-03	8.415520776343025773e+02	8.610468871680618008e+01	3.240429324328123073e+01	5.137664140193639469e+03
4.720115666597336779e-03	8.199541372997986173e+02	8.499087165483163631e+01	3.216922162582022793e+01	4.962558310275181611e+03
4.820145070719144588e-03	7.988918526341531106e+02	8.388750396408966026e+01	3.193450418655708134e+01	4.793348903987212907e+03
4.922294313081310678e-03	7.783560887036652503e+02	8.279469783264389093e+01	3.170017321611310379e+01	4.629876437926030121e+03
5.026608317615998724e-03	7.583438454780749680e+02	8.171262876403721975e+01	3.146627157452013535e+01	4.472036876763330838e+03
5.133132960290130720e-03	7.388347172858748308e+02	8.064092513182097832e+01	3.123275121408653732e+01	4.319559695895302866e+03
5.241915089281041530e-03	7.198099214804719850e+02	7.957933748903536753e+01	3.099958289802600575e+01	4.172215014303009411e+03
5.353002545579732367e-03	7.012612292566466294e+02	7.852798568401497903e+01	3.076680023687240961e+01	4.029861212879920913e+03
5.466444184030696055e-03	6.831860025978365911e+02	7.748717756892945374e+01	3.053447023485245637e+01	3.892427029051360023e+03
5.582289894817666839e-03	6.655653198232374734e+02	7.645646743028279957e+01	3.030252994227858210e+01	3.759661655827140748e+03
5.700590625404708227e-03	6.483825568168533664e+02	7.543555285642197816e+01	3.007094093602918150e+01	3.631361889186622648e+03
5.821398402942216249e-03	6.316303017334607830e+02	7.442454814921734396e+01	2.983973731501254179e+01	3.507403508998617326e+03
5.944766357147824969e-03	6.153062290516002122e+02	7.342378572578407159e+01	2.960899191536426045e+01	3.387730255567154927e+03
6.070748743672167193e-03	5.993928154423222168e+02	7.243291990258089186e+01	2.937865832783763409e+01	3.272126664441860157e+03
6.199400967959818945e-03	5.838753497971979414e+02	7.145159027440897148e+01	2.914868425744406366e+01	3.160411681708413653e+03
6.330779609615908021e-03	5.687471568239720909e+02	7.047985802963641788e+01	2.891909447872157202e+01	3.052479938919139386e+03
6.464942447289089879e-03	5.540061807433103240e+02	6.951803223060306891e+01	2.868995947354458664e+01	2.948271394299424173e+03
6.601948484081890736e-03	5.396362128143110795e+02	6.856582147083112488e+01	2.846124298196441416e+01	2.847607261671491869e+03
6.741857973499477616e-03	5.256242370001162953e+02	6.762296707262815687e+01	2.823291267774474278e+01	2.750333122974869184e+03
6.884732445948405985e-03	5.119642420129767970e+02	6.668944679411897880e+01	2.800497653331819237e+01	2.656357607310607818e+03
7.030634735796891313e-03	4.986544048922266938e+02	6.576552375214808421e+01	2.777749769832042048e+01	2.565620636487017691e+03
7.179629009008595825e-03	4.856797501697120651e+02	6.485089108064326524e+01	2.755043521249686478e+01	2.477967140349527654e+03
7.331780791361950343e-03	4.730287634647027630e+02	6.394539122574870760e+01	2.732377770202663569e+01	2.393265370555514892e+03
7.487156997267587974e-03	4.606960320301338356e+02	6.304902626808960520e+01	2.709753958465555357e+01	2.311440046892102146e+03
7.645825959196438613e-03	4.486799338628330247e+02	6.216197855327928323e+01	2.687176965867910639e+01	2.232435205478051103e+03
7.807857457731475631e-03	4.369666482681063826e+02	6.128392710382534148e+01	2.664642136218289892e+01	2.156113637237163402e+03
7.973322752256328111e-03	4.255459908656076209e+02	6.041472257084750908e+01	2.642148252556276589e+01	2.082361720206391055e+03
8.142294612294233985e-03	4.144130884309414569e+02	5.955445494688364505e+01	2.619698800733352684e+01	2.011115591807511919e+03
8.314847349511189298e-03	4.035664924147562260e+02	5.870326152148685139e+01	2.597297593655662240e+01	1.942327031419325522e+03
8.491056850397209546e-03	3.929934614927898906e+02	5.786077962315198420e+01	2.574939144592760698e+01	1.875872236736373907e+03
8.671000609640279119e-03	3.826849890098328615e+02	5.702687543311397178e+01	2.552622422894859611e+01	1.811656781489137757e+03
8.854757764207504128e-03	3.726366879537031878e+02	5.620164792018436373e+01	2.530351286838583036e+01	1.749621387159778124e+03
9.042409128148579806e-03	3.628472596360463740e+02	5.538531342236851884e+01	2.508131865915681757e+01	1.689730850914416578e+03
9.234037228136720080e-03	3.533049699094918310e+02	5.457742375598692774e+01	2.485956323334008289e+01	1.631869360450736167e+03
9.429726339762870002e-03	3.440018547245629748e+02	5.377785587256470734e+01	2.463824002676518532e+01	1.575957498082682378e+03
9.629562524599030379e-03	3.349339653024809991e+02	5.298671251852110942e+01	2.441738783331633300e+01	1.521943586631156222e+03
9.833633668047030499e-03	3.261001324332511331e+02	5.220423123876455662e+01	2.419707335656906011e+01	1.469800313902638209e+03
1.004202951798940403e-02	3.174895603340837624e+02	5.142997220864116770e+01	2.397721705757317068e+01	1.419422432658773005e+03
1.025484172425938229e-02	3.090952078094116473e+02	5.066378206978386345e+01	2.375780309211599928e+01	1.370742083922912570e+03
1.047216387894729824e-02	3.009135209295937443e+02	4.990575862862053924e+01	2.353887126945944175e+01	1.323713694893774118e+03
1.069409155756119272e-02	2.929434425194325513e+02	4.915616036385916487e+01	2.332049806187578156e+01	1.278316099805891099e+03
1.092072236105970547e-02	2.851750497939399338e+02	4.841458421332790607e+01	2.310260984887279179e+01	1.234455844281637610e+03
1.115215595877575537e-02	2.776021181543379726e+02	4.768083520409783915e+01	2.288517756712213469e+01	1.192073265161727022e+03
1.138849413224978825e-02	2.702214494662789548e+02	4.695501608591995790e+01	2.266824590764472447e+01	1.151129205605984225e+03
1.162984081999205582e-02	2.630320835596829738e+02	4.623737018100451479e+01	2.245188894144590819e+01	1.111604122396813636e+03
1.187630216319339981e-02	2.560249087381187110e+02	4.552753358111944948e+01	2.223604160371654004e+01	1.073419508310725405e+03
1.212798655240480798e-02	2.491944228455177495e+02	4.482531529705806150e+01	2.202067476985338956e+01	1.036521467790142651e+03
1.238500467520621366e-02	2.425377482941575806e+02	4.413078475748961438e+01	2.180582442522707609e+01	1.000875976635769348e+03
1.264746956488544717e-02	2.360540090522681282e+02	4.344418912511972053e+01	2.159157051940704264e+01	9.664659756719541974e+02
1.291549665014883955e-02	2.297348459975978585e+02	4.276518854997870278e+01	2.137785406259138909e+01	9.332229450776071644e+02
1.318920380588532899e-02	2.235753959673946554e+02	4.209360760566704585e+01	2.116464801484899638e+01	9.011003824336918342e+02
1.346871140500627631e-02	2.175730701379946481e+02	4.142949628867231127e+01	2.095198319836528000e+01	8.700701096169221955e+02
1.375414237138396570e-02	2.117270655700300779e+02	4.077307880957395270e+01	2.073993539118007945e+01	8.401143821189942855e+02
1.404562223391196511e-02	2.060297206130892391e+02	4.012404559015177341e+01	2.052845327354084404e+01	8.111752296384144074e+02
1.434327918171109106e-02	2.004767371427890623e+02	3.948222265557838995e+01	2.031750754132048442e+01	7.832113907611131935e+02
1.464724412050539583e-02	1.950657864176514238e+02	3.884765605422683166e+01	2.010712934772968552e+01	7.561998125883529838e+02
1.495765073019278586e-02	1.897961291846441441e+02	3.822056752048337813e+01	1.989739958568581812e+01	7.301234267892416483e+02
1.527463552363575450e-02	1.846607493927258759e+02	3.760064958960728632e+01	1.968826481242249926e+01	7.049318480521411630e+02
1.559833790669801906e-02	1.796558484648435012e+02	3.698773970193210658e+01	1.947969192206618061e+01	6.805903379028244444e+02
1.592890023955338338e-02	1.747793318986396116e+02	3.638186973556009463e+01	1.927170752506145845e+01	6.570774660457324217e+02
1.626646789929399317e-02	1.700305160274049570e+02	3.578326116505395760e+01	1.906439702406210657e+01	6.343796927437848581e+02
1.661118934386526108e-02	1.654029817873841068e+02	3.519160690611622755e+01	1.885770664024824583e+01	6.124522574453659445e+02
1.696321617735579643e-02	1.608933721114727007e+02	3.460675918058018397e+01	1.865160993554410851e+01	5.912647595200927526e+02
1.732270321667098503e-02	1.564998034448641988e+02	3.402876232912971943e+01	1.844614036564647108e+01	5.707991398816800483e+02
1.768980855961942850e-02	1.522216407809301870e+02	3.345782135875456476e+01	1.824137946884820849e+01	5.510435030524923832e+02
1.806469365444235767e-02	1.480530165034553534e+02	3.289362153687766721e+01	1.803726535591794189e+01	5.319586854247565952e+02
1.844752337081655841e-02	1.439909636778319850e+02	3.233602874526572890e+01	1.783377701916950642e+01	5.135180651376253991e+02
1.883846607236187159e-02	1.400337886727876651e+02	3.178509773694784712e+01	1.763095301944628446e+01	4.957060714489903717e+02
1.923769369068539445e-02	1.361808992843559167e+02	3.124102704852393231e+01	1.742887889172284943e+01	4.785130293680699083e+02
1.964538180099485026e-02	1.324269367148992274e+02	3.070349359784375309e+01	1.722748759791450723e+01	4.619032809256172527e+02
2.006170969931423895e-02	1.287692786820199160e+02	3.017237214426736358e+01	1.702675497622449541e+01	4.458550991897861877e+02
2.048686048133601528e-02	1.252064025524545485e+02	2.964772261387179952e+01	1.682672130879884520e+01	4.303541588010303371e+02
2.092102112294418406e-02	1.217377538673302837e+02	2.912973812522414008e+01	1.662747408438791652e+01	4.153925984367642741e+02
2.136438256244391209e-02	1.183584429095093640e+02	2.861807535204954434e+01	1.642893355845238190e+01	4.009382726370217256e+02
2.181713978453380873e-02	1.150661517966877767e+02	2.811263520702411967e+01	1.623108512696693140e+01	3.869734287439553668e+02
2.227949190605761978e-02	1.118595118107805604e+02	2.761349908699758160e+01	1.603398379861949152e+01	3.734854508494251490e+02
2.275164226357336353e-02	1.087380019398563746e+02	2.712082478287719312e+01	1.583770610252786959e+01	3.604672049836503334e+02
2.323379850277806913e-02	1.056971644963270620e+02	2.663426143081517239e+01	1.564216561424070306e+01	3.478899636108070581e+02
2.372617266982774559e-02	1.027349503729866598e+02	2.615375446875386345e+01	1.544736700653822048e+01	3.357392678396134329e+02
2.422898130459259780e-02	9.985012938701234475e+01	2.567938437286764142e+01	1.525336599340591626e+01	3.240043432499333562e+02
2.474244553588843265e-02	9.704221029846183910e+01	2.521127644413056146e+01	1.506022868820801008e+01	3.126784171669571606e+02
2.526679117872631872e-02	9.430713296868334794e+01	2.474907492112700425e+01	1.486785924338632903e+01	3.017359672844316947e+02
