# Data associated with arXiv:2110.09653
# 
# Scale-free velocity distribution, f(E), of a nfw0-9 dark matter distribution (see Eq. 13 and the surrounding discussion)
# 
# Published: 3/29/22, Jack Runburg, contact: runburg@hawaii.edu
# 
# 
# -----------------------------------------------------------------
# 
# 	 tilde E 		 | 		 tilde f
# 
# -----------------------------------------------------------------
1.368946620424845740e-06	1.275652137179578613e+12
1.394420332386403939e-06	1.228517597249230957e+12
1.420368064666615536e-06	1.181620863978131836e+12
1.446798637828209431e-06	1.135160774302865479e+12
1.473721036562959315e-06	1.089838500309582642e+12
1.501144412745557630e-06	1.044771528119236694e+12
1.529078088544358883e-06	1.001057796102791504e+12
1.557531559589945890e-06	9.591730729915136719e+11
1.586514498202695032e-06	9.190408629559030762e+11
1.616036756680360787e-06	8.805877773859036865e+11
1.646108370646820065e-06	8.437435915075546875e+11
1.676739562463157315e-06	8.084409882593768311e+11
1.707940744702157469e-06	7.746154663928823242e+11
1.739722523687499067e-06	7.422052242539709473e+11
1.772095703098732830e-06	7.111510450159724121e+11
1.805071287643385487e-06	6.813961905089775391e+11
1.838660486797344185e-06	6.528862959931571045e+11
1.872874718614826782e-06	6.255692715879517822e+11
1.907725613609274629e-06	5.993952069782926025e+11
1.943225018706384183e-06	5.743162793603104248e+11
1.979385001270750868e-06	5.502866679778021240e+11
2.016217853207355073e-06	5.272624688998499146e+11
2.053736095139414941e-06	5.052016146392546997e+11
2.091952480663925638e-06	4.840637987137964478e+11
2.130880000686362318e-06	4.638103996793226318e+11
2.170531887836073145e-06	4.444044138812647705e+11
2.210921620963746836e-06	4.258103847037594604e+11
2.252062929722620849e-06	4.079943391915725098e+11
2.293969799234843914e-06	3.909237263629459839e+11
2.336656474844725929e-06	3.745673566052014160e+11
2.380137466960331700e-06	3.588953455676809692e+11
2.424427555985224397e-06	3.438790592578232422e+11
2.469541797341904138e-06	3.294910618141507568e+11
2.515495526588690826e-06	3.157050651302234497e+11
2.562304364631862190e-06	3.024958812649712524e+11
2.609984223034659366e-06	2.898393759000847168e+11
2.658551309425151806e-06	2.777124246852902222e+11
2.708022133004608157e-06	2.660928707175243530e+11
2.758413510158428423e-06	2.549594843100335388e+11
2.809742570171390358e-06	2.442919237707826538e+11
2.862026761049215436e-06	2.340706988011969604e+11
2.915283855448494467e-06	2.242771342788036804e+11
2.969531956716821527e-06	2.148933368034903870e+11
3.024789505045397763e-06	2.059021614237796021e+11
3.081075283735976599e-06	1.972871806576344604e+11
3.138408425584487734e-06	1.890326542395989075e+11
3.196808419383341045e-06	1.811235005665915222e+11
3.256295116544683822e-06	1.735452690902942810e+11
3.316888737846930531e-06	1.662841137804529114e+11
3.378609880306682663e-06	1.593267679499564209e+11
3.441479524178590382e-06	1.526605203028285217e+11
3.505519040085303601e-06	1.462731908461967163e+11
3.570750196280157357e-06	1.401531101647732239e+11
3.637195166044882290e-06	1.342890947625526733e+11
3.704876535224906726e-06	1.286704323571387482e+11
3.773817309904912170e-06	1.232868567102367096e+11
3.844040924227028301e-06	1.181285316897847900e+11
3.915571248354588462e-06	1.131860326771493988e+11
3.988432596583875779e-06	1.084503293809684753e+11
4.062649735606880860e-06	1.039127693904748840e+11
4.138247892927655361e-06	9.956506226780319214e+10
4.215252765435217149e-06	9.539926455260446167e+10
4.293690528135985652e-06	9.140776494300332642e+10
4.373587843048519729e-06	8.758327080539553833e+10
4.454971868263825069e-06	8.391879450548532104e+10
4.537870267174033115e-06	8.040764085566824341e+10
4.622311217872869269e-06	7.704339474520994568e+10
4.708323422730867390e-06	7.381990950832357788e+10
4.795936118148657720e-06	7.073129561450608826e+10
4.885179084491777356e-06	6.777191002167907715e+10
4.976082656210075467e-06	6.493634575657408905e+10
5.068677732145509640e-06	6.221942205426487732e+10
5.162995786031464007e-06	5.961617495388360596e+10
5.259068877187506669e-06	5.712184819263983154e+10
5.356929661412934736e-06	5.473188446829515076e+10
5.456611402082903402e-06	5.244191720524298096e+10
5.558147981451045546e-06	5.024776251511128235e+10
5.661573912162106385e-06	4.814541155300708008e+10
5.766924348978865601e-06	4.613102322414826202e+10
5.874235100726957845e-06	4.420091702617510986e+10
5.983542642462013134e-06	4.235156686332125092e+10
6.094884127862933868e-06	4.057959355617093658e+10
6.208297401855641893e-06	3.888175978819089508e+10
6.323821013471709484e-06	3.725496347712747192e+10
6.441494228945909534e-06	3.569623240964296722e+10
6.561357045057541820e-06	3.420271871361227417e+10
6.683450202719624826e-06	3.277169366817885971e+10
6.807815200820992125e-06	3.140054275698078156e+10
6.934494310325643679e-06	3.008676074578981781e+10
7.063530588634267380e-06	2.882794738198696899e+10
7.194967894212961384e-06	2.762180273145423508e+10
7.328850901493732881e-06	2.646612312976577759e+10
7.465225116052315465e-06	2.535879709198180008e+10
7.604136890067940040e-06	2.429780150136820602e+10
7.745633438070804720e-06	2.328119786932310486e+10
7.889762852982182736e-06	2.230712883151861572e+10
8.036574122452746940e-06	2.137381473277826309e+10
8.186117145504879180e-06	2.047955037696076584e+10
8.338442749484090797e-06	1.962270190579810715e+10
8.493602707325946809e-06	1.880170383682510757e+10
8.651649755143686919e-06	1.801505617129492569e+10
8.812637610143126516e-06	1.726132169563434982e+10
8.976620988870439921e-06	1.653912330677013969e+10
9.143655625799175247e-06	1.584714153169836235e+10
9.313798292263024726e-06	1.518411209784043694e+10
9.487106815740272943e-06	1.454882364916057014e+10
9.663640099497053317e-06	1.394011548362606812e+10
9.843458142595475871e-06	1.335687548142154312e+10
1.002662206027397687e-05	1.279803805339175797e+10
1.021319410470634469e-05	1.226258219287954330e+10
1.040323768614661664e-05	1.174952961537591171e+10
1.059681739446726500e-05	1.125794295879149437e+10
1.079399902109739953e-05	1.078692409250981712e+10
1.099484958136912121e-05	1.033561245767935562e+10
1.119943733727888824e-05	9.903183505492490768e+09
1.140783182067228506e-05	9.488847175039163589e+09
1.162010385685951603e-05	9.091846480304166794e+09
1.183632558866980288e-05	8.711456090470392227e+09
1.205657050095313064e-05	8.346981036030780792e+09
1.228091344553699261e-05	7.997755415472076416e+09
1.250943066664739585e-05	7.663141196541046143e+09
1.274219982680187228e-05	7.342527033975677490e+09
1.297930003318412970e-05	7.035327172019269943e+09
1.322081186450858437e-05	6.740980354349323273e+09
1.346681739838411946e-05	6.458948808838289261e+09
1.371740023918667152e-05	6.188717267431462288e+09
1.397264554644931339e-05	5.929792020284848213e+09
1.423264006378040286e-05	5.681700011430999756e+09
1.449747214831858421e-05	5.443987981075105667e+09
1.476723180073559135e-05	5.216221632494727135e+09
1.504201069579623604e-05	4.997984839845027924e+09
1.532190221348620632e-05	4.788878888251792908e+09
1.560700147071857137e-05	4.588521746031122208e+09
1.589740535362890489e-05	4.396547363382238388e+09
1.619321255047094632e-05	4.212605008736913204e+09
1.649452358512289147e-05	4.036358624485960960e+09
1.680144085121676573e-05	3.867486212495761395e+09
1.711406864690121865e-05	3.705679249228199959e+09
1.743251321025074697e-05	3.550642117609148502e+09
1.775688275533219827e-05	3.402091570856659889e+09
1.808728750894153856e-05	3.259756210673738956e+09
1.842383974802306755e-05	3.123375999593236446e+09
1.876665383778336357e-05	2.992701771681414604e+09
1.911584627051373091e-05	2.867494795296563148e+09
1.947153570513320109e-05	2.747526320673434258e+09
1.983384300746633864e-05	2.632577171648550034e+09
2.020289129126897362e-05	2.522437342555556297e+09
2.057880596001591812e-05	2.416905615320839405e+09
2.096171474946484619e-05	2.315789186443901539e+09
2.135174777101030651e-05	2.218903323689979076e+09
2.174903755584338860e-05	2.126071024866196871e+09
2.215371909993086645e-05	2.037122684079713106e+09
2.256592990982991630e-05	1.951895805956497431e+09
2.298581004935346234e-05	1.870234684637438297e+09
2.341350218710192512e-05	1.791990131237978697e+09
2.384915164487770719e-05	1.717019198896674633e+09
2.429290644699813668e-05	1.645184921869849443e+09
2.474491737052457528e-05	1.576356063985744953e+09
2.520533799642342507e-05	1.510406881425070524e+09
2.567432476167727263e-05	1.447216891000166655e+09
2.615203701236327685e-05	1.386670650193593979e+09
2.663863705771681207e-05	1.328657546750990152e+09
2.713429022519888247e-05	1.273071596464146852e+09
2.763916491658508526e-05	1.219811249485285759e+09
2.815343266509645831e-05	1.168779204412912607e+09
2.867726819358972211e-05	1.119882231644250870e+09
2.921084947382836277e-05	1.073031002540643930e+09
2.975435778685289279e-05	1.028139922801736116e+09
3.030797778447190245e-05	9.851269842985482216e+08
3.087189755189409843e-05	9.439136068358058929e+08
3.144630867152206849e-05	9.044244987466796637e+08
3.203140628793055050e-05	8.665875187241580486e+08
3.262738917404921967e-05	8.303335434371750355e+08
3.323445979857440533e-05	7.955963422554472685e+08
3.385282439463055068e-05	7.623124547969381809e+08
3.448269302970584041e-05	7.304210767155005932e+08
3.512427967688521178e-05	6.998639469367886782e+08
3.577780228740398498e-05	6.705852424083657265e+08
3.644348286454830965e-05	6.425314756488740444e+08
3.712154753892490461e-05	6.156513972396885157e+08
3.781222664512803606e-05	5.898959012552293539e+08
3.851575479982717999e-05	5.652179372499197721e+08
3.923237098130331435e-05	5.415724228628610373e+08
3.996231861045985480e-05	5.189161620291203260e+08
4.070584563333552904e-05	4.972077659525449872e+08
4.146320460514741951e-05	4.764075769256457090e+08
4.223465277589132701e-05	4.564775991751142740e+08
4.302045217753001612e-05	4.373814223906430006e+08
4.382086971279670505e-05	4.190841627327784300e+08
4.463617724564510622e-05	4.015523948733752370e+08
4.546665169337571119e-05	3.847540920839679837e+08
4.631257512046941610e-05	3.686585675081274509e+08
4.717423483416032269e-05	3.532364184332379699e+08
4.805192348177879066e-05	3.384594721711301208e+08
4.894593914989932081e-05	3.243007347247237563e+08
4.985658546532429735e-05	3.107343415915737748e+08
5.078417169793925285e-05	2.977355103047183156e+08
5.172901286547336111e-05	2.852804954021779299e+08
5.269142984020027233e-05	2.733465447370647192e+08
5.367174945761582169e-05	2.619118583289755583e+08
5.467030462712742066e-05	2.509555480861293375e+08
5.568743444479489450e-05	2.404575998633543253e+08
5.672348430815746701e-05	2.303988369885509908e+08
5.777880603318786851e-05	2.207608850455317795e+08
5.885375797341141281e-05	2.115261383767993152e+08
5.994870514123036830e-05	2.026777279847442508e+08
6.106401933149454534e-05	1.941994906158635914e+08
6.220007924735801875e-05	1.860759391831193864e+08
6.335727062846708830e-05	1.782922346689942777e+08
6.453598638151843386e-05	1.708341588520923853e+08
6.573662671323485165e-05	1.636880885256856680e+08
6.695959926580040151e-05	1.568409701189715266e+08
6.820531925480166039e-05	1.502802964422398508e+08
6.947420960972105217e-05	1.439940836583262384e+08
7.076670111702769558e-05	1.379708491363355815e+08
7.208323256591678177e-05	1.321995907059652209e+08
7.342425089674223205e-05	1.266697665562804192e+08
7.479021135219524681e-05	1.213712759401912093e+08
7.618157763127780552e-05	1.162944406149058044e+08
7.759882204612256348e-05	1.114299873506591171e+08
7.904242568171232519e-05	1.067690308329011351e+08
8.051287855855021472e-05	1.023030575357583463e+08
8.201067979833833084e-05	9.802391007520215213e+07
8.353633779271596644e-05	9.392377241773627698e+07
8.509037037511691509e-05	8.999515544367936254e+07
8.667330499580117237e-05	8.623088347444592416e+07
8.828567890012018892e-05	8.262408091837543249e+07
8.992803931007496742e-05	7.916816005637589097e+07
9.160094360922571316e-05	7.585680852036589384e+07
9.330495953101855099e-05	7.268397815855495632e+07
9.504066535058652745e-05	6.964387388683630526e+07
9.680865008009321645e-05	6.673094312381596863e+07
9.860951366768125651e-05	6.393986541798594594e+07
1.004438672000925928e-04	6.126554304761160910e+07
1.023123331090284173e-04	5.870309153942526877e+07
1.042155453813144411e-04	5.624783075292163342e+07
1.061541497729465546e-04	5.389527637191456556e+07
1.081288040270806511e-04	5.164113168523600698e+07
1.101401780960462241e-04	4.948127976879875362e+07
1.121889543674510243e-04	4.741177583823017031e+07
1.142758278944555183e-04	4.542884029893402010e+07
1.164015066302926489e-04	4.352885157559020817e+07
1.185667116671076666e-04	4.170833964578875154e+07
1.207721774792026279e-04	3.996397965895637870e+07
1.230186521707583359e-04	3.829258585632912070e+07
1.253068977281241749e-04	3.669110576910610497e+07
1.276376902767504705e-04	3.515661463571161032e+07
1.300118203428548972e-04	3.368631003988279402e+07
1.324300931199062672e-04	3.227750684122684598e+07
1.348933287400115285e-04	3.092763220215503499e+07
1.374023625503019105e-04	2.963422094290993735e+07
1.399580453943996420e-04	2.839491101006596908e+07
1.425612438990682927e-04	2.720743917340682074e+07
1.452128407661317151e-04	2.606963688216574490e+07
1.479137350697638245e-04	2.497942631678369269e+07
1.506648425592438162e-04	2.393481658649112284e+07
1.534670959672772153e-04	2.293390007469433546e+07
1.563214453239841328e-04	2.197484899974460900e+07
1.592288582766551513e-04	2.105591200563026965e+07
1.621903204153851328e-04	2.017541104752165824e+07
1.652068356046844486e-04	1.933173826291381195e+07
1.682794263211820167e-04	1.852335305495705828e+07
1.714091339975274818e-04	1.774877928293444216e+07
1.745970193726057015e-04	1.700660254318431392e+07
1.778441628481787625e-04	1.629546764411032386e+07
1.811516648520681758e-04	1.561407604856410250e+07
1.845206462080035590e-04	1.496118356312916428e+07
1.879522485122478274e-04	1.433559802883533575e+07
1.914476345171306764e-04	1.373617719415606186e+07
1.950079885216098627e-04	1.316182654652674869e+07
1.986345167689888434e-04	1.261149740531490743e+07
2.023284478519216903e-04	1.208418493649151921e+07
2.060910331248307211e-04	1.157892634685872495e+07
2.099235471238807492e-04	1.109479912750373594e+07
2.138272879946349870e-04	1.063091935176342167e+07
2.178035779275392953e-04	1.018644007832808048e+07
2.218537636013712805e-04	9.760549796383928508e+06
2.259792166347996572e-04	9.352470942635823041e+06
2.301813340461980216e-04	8.961458478502815589e+06
2.344615387218642276e-04	8.586798532837800682e+06
2.388212798927917058e-04	8.227807123632112518e+06
2.432620336201510726e-04	7.883828836479278281e+06
2.477853032896357968e-04	7.554235706312087364e+06
2.523926201148308959e-04	7.238426030734204687e+06
2.570855436497664222e-04	6.935823279751074500e+06
2.618656623108204053e-04	6.645875038887704723e+06
2.667345939081404113e-04	6.368052002560308203e+06
2.716939861867483552e-04	6.101847035154514015e+06
2.767455173775084103e-04	5.846774105185709894e+06
2.818908967581287730e-04	5.602367683688033372e+06
2.871318652243805172e-04	5.368181597349928692e+06
2.924701958717117775e-04	5.143788367667237297e+06
2.979076945874440719e-04	4.928778401912137866e+06
3.034462006537413654e-04	4.722759237630934455e+06
3.090875873615398753e-04	4.525354828440980054e+06
3.148337626356334496e-04	4.336204864817851223e+06
3.206866696711176980e-04	4.154964101566875819e+06
3.266482875813873812e-04	3.981301741982587613e+06
3.327206320578969599e-04	3.814900821694970597e+06
3.389057560418909528e-04	3.655457638843076304e+06
3.452057504083147640e-04	3.502681194381751120e+06
3.516227446621243377e-04	3.356292660979429726e+06
3.581589076472086624e-04	3.216024875988027547e+06
3.648164482681542161e-04	3.081621852124688681e+06
3.715976162250727460e-04	2.952838309316904750e+06
3.785047027617233196e-04	2.829439227391209453e+06
3.855400414271650008e-04	2.711199417142152321e+06
3.927060088511745580e-04	2.597903110220207833e+06
4.000050255336758576e-04	2.489343561356041580e+06
4.074395566484184943e-04	2.385322674865079578e+06
4.150121128611643467e-04	2.285650642013746314e+06
4.227252511626319680e-04	2.190145588663017843e+06
4.305815757164543575e-04	2.098633253521618433e+06
4.385837387224181282e-04	2.010946663350117393e+06
4.467344412952442795e-04	1.926925826427384280e+06
4.550364343591887790e-04	1.846417446120278677e+06
4.634925195587279363e-04	1.769274635539982002e+06
4.721055501856208651e-04	1.695356653467509896e+06
4.808784321226224740e-04	1.624528642616980942e+06
4.898141248041411799e-04	1.556661390089889057e+06
4.989156421941344077e-04	1.491631084891828010e+06
5.081860537815376978e-04	1.429319096095595043e+06
5.176284855935350121e-04	1.369611753152558347e+06
5.272461212269690962e-04	1.312400139911887469e+06
5.370422028982145589e-04	1.257579899521219311e+06
5.470200325118252131e-04	1.205051033340616152e+06
5.571829727482796374e-04	1.154717730070509017e+06
5.675344481711514129e-04	1.106488184210249688e+06
5.780779463540384024e-04	1.060274429351186380e+06
5.888170190275874996e-04	1.015992180055119563e+06
5.997552832469602762e-04	9.735606736018108204e+05
6.108964225800811573e-04	9.329025267746684840e+05
6.222441883170318775e-04	8.939435923121530795e+05
6.338024007009433877e-04	8.566128236929733539e+05
6.455749501807529767e-04	8.208421463884172263e+05
6.575657986861956680e-04	7.865663323400646914e+05
6.697789809254063283e-04	7.537228817519183503e+05
6.822186057055162943e-04	7.222519086366175907e+05
6.948888572766222542e-04	6.920960318158358568e+05
7.077939966995351519e-04	6.632002687524777139e+05
7.209383632376917305e-04	6.355119391742020380e+05
7.343263757736500329e-04	6.089805627567754127e+05
7.479625342505609106e-04	5.835577607791811461e+05
7.618514212852777346e-04	5.591971953703467734e+05
7.759977030969093109e-04	5.358544758779614931e+05
7.904061318435825004e-04	5.134870399686667952e+05
8.050815466403369713e-04	4.920541089356240700e+05
8.200288752598001735e-04	4.715166230631002691e+05
8.352531357325414111e-04	4.518371500961127458e+05
8.507594379754576360e-04	4.329798232276595663e+05
8.665529854486483897e-04	4.149102754522730247e+05
8.826390768412532535e-04	3.975955768527102191e+05
8.990231077867087998e-04	3.810041746619494515e+05
9.157105726079269210e-04	3.651058353382056230e+05
9.327070660928620449e-04	3.498715896569483448e+05
9.500182853009686785e-04	3.352736797551990021e+05
9.676500314010459550e-04	3.212855083602349623e+05
9.856082115409746380e-04	3.078815905637780088e+05
1.003898840749865590e-03	2.950375068244037102e+05
1.022528043873122128e-03	2.827298588164540124e+05
1.041502057540964754e-03	2.709362264707781724e+05
1.060827232170934902e-03	2.596351272955937602e+05
1.080510034004923681e-03	2.488059768093360181e+05
1.100557047181268929e-03	2.384290513069271401e+05
1.120974975842478714e-03	2.284854519424830505e+05
1.141770646279135527e-03	2.189570696953824663e+05
1.162951009110557753e-03	2.098265528803231718e+05
1.184523141502774601e-03	2.010772752044777735e+05
1.206494249424415596e-03	1.926933055655891076e+05
1.228871669941093356e-03	1.846593788025655085e+05
1.251662873548868614e-03	1.769608681065149140e+05
1.274875466547409613e-03	1.695837581016094773e+05
1.298517193453445004e-03	1.625146193210501806e+05
1.322595939455137792e-03	1.557405837556617043e+05
1.347119732907979452e-03	1.492493213257308525e+05
1.372096747872861896e-03	1.430290174632216804e+05
1.397535306696941161e-03	1.370683514274004847e+05
1.423443882637944434e-03	1.313564758333318459e+05
1.449831102532564853e-03	1.258829966077671706e+05
1.476705749509604152e-03	1.206379543066444312e+05
1.504076765748526678e-03	1.156118058030605898e+05
1.531953255284076824e-03	1.107954067959732929e+05
1.560344486857658756e-03	1.061799943640239071e+05
1.589259896958824907e-03	1.017571732986379357e+05
1.618709092221374494e-03	9.751890021784222336e+04
1.648701853218088442e-03	9.345746549170473008e+04
1.679248136990073303e-03	8.956548203771607950e+04
1.710358080267341532e-03	8.583587273841896967e+04
1.742042002615204130e-03	8.226185573799166013e+04
1.774310409632329872e-03	7.883693265079088451e+04
1.807173996201168024e-03	7.555487668941839365e+04
