# Data associated with arXiv:2110.09653
# 
# Scale-free J-factor angular distribution, J_S(theta), of a nfw0-7 dark matter distribution (see Eq. 8 and the surrounding discussion)
# 
# Published: 3/29/22, Jack Runburg, contact: runburg@hawaii.edu
# 
# 
# -----------------------------------------------------------------
# 
# 	 tilde theta 		 | 	 tilde J s-wave 		 | 	 tilde J p-wave 		 | 	 tilde J d-wave 		 | 	 tilde J sommerfeld 
# 
# -----------------------------------------------------------------
1.000000000000000021e-03	4.306305203296788164e+01	2.396302753866150770e+00	8.975636982200514424e-01	9.206054100079948057e+02
1.021192151037671062e-03	4.264882718578166276e+01	2.392310960375219064e+00	8.967246132660879887e-01	9.007677433721262332e+02
1.042833409340945643e-03	4.223818085084617735e+01	2.388294835347626321e+00	8.958801095148249960e-01	8.813672484340431765e+02
1.064933292458827233e-03	4.183089024176982207e+01	2.384253142736400655e+00	8.950299191476893679e-01	8.623809143337913383e+02
1.087501519637659123e-03	4.142697066702670128e+01	2.380185971878432394e+00	8.941740484774455267e-01	8.438025395298303692e+02
1.110548016095517111e-03	4.102648373929780945e+01	2.376093682666041929e+00	8.933125619825267316e-01	8.256292777134319749e+02
1.134082917387199208e-03	4.062945266569079195e+01	2.371976435082470136e+00	8.924454811624521477e-01	8.078563375421696264e+02
1.158116573861711456e-03	4.023566810447305642e+01	2.367833001875691679e+00	8.915725379601182610e-01	7.904616670732156081e+02
1.182659555214217667e-03	3.984514518253532600e+01	2.363663475415614279e+00	8.906937382956005012e-01	7.734424049889272510e+02
1.207722655134462354e-03	3.945794623541790713e+01	2.359468242403091498e+00	8.898091509647376718e-01	7.567930525830936404e+02
1.233316896053688856e-03	3.907408481269214207e+01	2.355247409310600837e+00	8.889187854398242772e-01	7.405100668986102619e+02
1.259453533992170365e-03	3.869336432420598726e+01	2.350999761505175645e+00	8.880223735035054355e-01	7.245741854845032321e+02
1.286144063509461061e-03	3.831579971692928410e+01	2.346725392013607525e+00	8.871199205713162783e-01	7.089814723130764378e+02
1.313400222759557485e-03	3.794145385950581328e+01	2.342424707694317210e+00	8.862114995476875201e-01	6.937279369208433764e+02
1.341233998653187541e-03	3.757033137586699922e+01	2.338097783049765788e+00	8.852971079857954173e-01	6.788097303662489139e+02
1.369657632129505243e-03	3.720224776663835087e+01	2.333743394882595190e+00	8.843764769101613021e-01	6.642093674987478380e+02
1.398683623539492566e-03	3.683721780111569899e+01	2.329361632341845567e+00	8.834496108527338798e-01	6.499224131706258731e+02
1.428324738143458596e-03	3.647530470456977980e+01	2.324952947353956301e+00	8.825165875283346173e-01	6.359482416719486082e+02
1.458594011725036863e-03	3.611650486768598256e+01	2.320517346680964543e+00	8.815773909740592940e-01	6.222792962668382870e+02
1.489504756324154782e-03	3.576064525034547614e+01	2.316053619966209620e+00	8.806317520031453627e-01	6.089023473136068105e+02
1.521070566091505720e-03	3.540774044777979412e+01	2.311561863734173272e+00	8.796796745739713375e-01	5.958120855172834354e+02
1.553305323267072666e-03	3.505785387699100397e+01	2.307042563549824621e+00	8.787212407582201124e-01	5.830082992985024930e+02
1.586223204285366938e-03	3.471097434963286332e+01	2.302495663973798123e+00	8.777564207431665100e-01	5.704836399973652306e+02
1.619838686010041055e-03	3.436693968414530076e+01	2.297919964881533605e+00	8.767849450319693538e-01	5.582268803994479640e+02
1.654166552100628336e-03	3.402576430420895548e+01	2.293315571506221673e+00	8.758068168914712182e-01	5.462324883085767624e+02
1.689221899514206692e-03	3.368751166621486703e+01	2.288682990403527295e+00	8.748221223593282136e-01	5.345000891781206747e+02
1.725020145144853453e-03	3.335216361983262345e+01	2.284022132481289269e+00	8.738308183059497747e-01	5.230244505932121228e+02
1.761577032603788440e-03	3.301956827029214026e+01	2.279331782520842786e+00	8.728326339016349023e-01	5.117930349340025487e+02
1.798908639143220224e-03	3.268973987203683862e+01	2.274612049665294844e+00	8.718275713021852447e-01	5.008024710875432675e+02
1.837031382726912916e-03	3.236274177962040710e+01	2.269863494514379187e+00	8.708157215794951611e-01	4.900517101926192822e+02
1.875962029250603357e-03	3.203854946348639032e+01	2.265085936381548759e+00	8.697970254331185425e-01	4.795358135524678005e+02
1.915717699915417882e-03	3.171702077016688293e+01	2.260278179969460677e+00	8.687712119061327121e-01	4.692432931659868700e+02
1.956315878757565116e-03	3.139816978812682180e+01	2.255440362299138357e+00	8.677382829574511458e-01	4.591724702370785849e+02
1.997774420337589726e-03	3.108205963870425137e+01	2.250573071273608505e+00	8.666983335960157797e-01	4.493206239446785730e+02
2.040111557592579582e-03	3.076865996375082091e+01	2.245676045507838392e+00	8.656512880001663301e-01	4.396838400882991209e+02
2.083345909854779961e-03	3.045783783122618615e+01	2.240748127009778656e+00	8.645968758047707370e-01	4.302518417581288190e+02
2.127496491040134757e-03	3.014960716632596416e+01	2.235789458763765225e+00	8.635350977365722214e-01	4.210224136815737666e+02
2.172582718010372237e-03	2.984403073653182048e+01	2.230800629016806536e+00	8.624660513387236715e-01	4.119939122116601879e+02
2.218624419112281976e-03	2.954107287351049393e+01	2.225781339508370316e+00	8.613896456559078096e-01	4.031622127427749547e+02
2.265641842897974604e-03	2.924060937220932033e+01	2.220730432383814623e+00	8.603056091703499275e-01	3.945182356105241297e+02
2.313655667029933423e-03	2.894265399777889414e+01	2.215648048079974952e+00	8.592139406239929222e-01	3.860593048197865755e+02
2.362687007374795686e-03	2.864726905248027933e+01	2.210534823647554159e+00	8.581147420794484892e-01	3.777855436986902191e+02
2.412757427289825233e-03	2.835441404591765746e+01	2.205390393581895925e+00	8.570079055376657040e-01	3.696908369774688481e+02
2.463888947106213784e-03	2.806397302947172179e+01	2.200213624928103240e+00	8.558931591936039807e-01	3.617685518577213202e+02
2.516104053813336943e-03	2.777595961079649811e+01	2.195004655962570439e+00	8.547704996020332180e-01	3.540156152414193684e+02
2.569425710948245768e-03	2.749043552473054319e+01	2.189764152453688162e+00	8.536400321489535648e-01	3.464322277396531149e+02
2.623877368694733318e-03	2.720735592000201919e+01	2.184491690430930166e+00	8.525016312419405606e-01	3.390128383029503993e+02
2.679482974196439188e-03	2.692661265472121457e+01	2.179186130230988727e+00	8.513550232984030686e-01	3.317516295877405241e+02
2.736266982088478034e-03	2.664821918333288053e+01	2.173847629120984948e+00	8.502002036577988031e-01	3.246453313399680951e+02
2.794254365252289707e-03	2.637223657889736828e+01	2.168476899168657823e+00	8.490372817049683940e-01	3.176941394337122233e+02
2.853470625798387814e-03	2.609861606216893648e+01	2.163073457015372014e+00	8.478661139804468672e-01	3.108935948537344984e+02
2.913941806281861776e-03	2.582725687235122081e+01	2.157636168708643609e+00	8.466864251750251258e-01	3.042374084455696561e+02
2.975694501155571117e-03	2.555817231295050718e+01	2.152165201420112695e+00	8.454982082370388063e-01	2.977234734745945275e+02
3.038755868466027146e-03	2.529142270896737799e+01	2.146661328932378598e+00	8.443015771964187399e-01	2.913516173690792925e+02
3.103153641797168783e-03	2.502695576237442054e+01	2.141123925581635667e+00	8.430963648754952189e-01	2.851176455547994806e+02
3.168916142467233243e-03	2.476467768629812838e+01	2.135551903782408445e+00	8.418822966265238072e-01	2.790155225206820546e+02
3.236072291984112663e-03	2.450460163670816982e+01	2.129945479376133211e+00	8.406593654511762548e-01	2.730444353164974700e+02
3.304651624764658874e-03	2.424678711275095466e+01	2.124305389776558251e+00	8.394276841903023367e-01	2.672028585372672751e+02
3.374684301123556836e-03	2.399117868045337332e+01	2.118631014828504355e+00	8.381870700554275855e-01	2.614877357365205057e+02
3.446201120537424525e-03	2.373768914094971905e+01	2.112921292740001178e+00	8.369372475643284126e-01	2.558936071014206277e+02
3.519233535190044709e-03	2.348633150627053112e+01	2.107176364672846525e+00	8.356782014243842038e-01	2.504191349381904672e+02
3.593813663804625805e-03	2.323716437705259708e+01	2.101397066639632438e+00	8.344100507094883712e-01	2.450635821311192899e+02
3.669974305769219299e-03	2.299012954527061581e+01	2.095582699015916095e+00	8.331325912326921213e-01	2.398237088593355111e+02
3.747748955561452412e-03	2.274514603213003738e+01	2.089732176748771320e+00	8.318455432392788396e-01	2.346946572902427306e+02
3.827171817478984984e-03	2.250222670921568380e+01	2.083845708344932657e+00	8.305488921193769913e-01	2.296750245656410243e+02
3.908277820682117681e-03	2.226142921371702954e+01	2.077924183617766207e+00	8.292427606447890787e-01	2.247649434664236594e+02
3.991102634555192957e-03	2.202269290270774960e+01	2.071966760589524892e+00	8.279269178617785219e-01	2.199602675197249937e+02
4.075682684393532908e-03	2.178594266773874111e+01	2.065972399970312345e+00	8.266010839174150471e-01	2.152572935660175517e+02
4.162055167422817371e-03	2.155119124337076997e+01	2.059941352538146475e+00	8.252652426585508350e-01	2.106544592724935114e+02
4.250258069157961290e-03	2.131849524465031465e+01	2.053874492314080591e+00	8.239195154935824439e-01	2.061520832699569326e+02
4.340330180108637088e-03	2.108779191234626538e+01	2.047770958219709669e+00	8.225636525189234938e-01	2.017460424583503595e+02
4.432311112838861061e-03	2.085901167566481007e+01	2.041629745278488617e+00	8.211973725516420464e-01	1.974335102740459718e+02
4.526241319388085715e-03	2.063216713619693721e+01	2.035451042327826698e+00	8.198206499315124907e-01	1.932125217279254628e+02
4.622162109061505458e-03	2.040731383352368766e+01	2.029235804945753063e+00	8.184336101156983734e-01	1.890835101745620648e+02
4.720115666597336779e-03	2.018438719111401269e+01	2.022983082386537124e+00	8.170359786813715663e-01	1.850428610875284221e+02
4.820145070719144588e-03	1.996332286013488044e+01	2.016691888230286001e+00	8.156274719991647437e-01	1.810876765744852150e+02
4.922294313081310678e-03	1.974413331232403479e+01	2.010362485650718956e+00	8.142080647556365625e-01	1.772165596226983837e+02
5.026608317615998724e-03	1.952687296499116343e+01	2.003995819987021143e+00	8.127778800722578190e-01	1.734295638673040116e+02
5.133132960290130720e-03	1.931147570455605234e+01	1.997590869234551203e+00	8.113366195328911568e-01	1.697236779074001731e+02
5.241915089281041530e-03	1.909788210301723055e+01	1.991146686518526554e+00	8.098839979995025029e-01	1.660958233274873805e+02
5.353002545579732367e-03	1.888610450701938248e+01	1.984663508080453331e+00	8.084199818436630380e-01	1.625452600991137615e+02
5.466444184030696055e-03	1.867619616892646306e+01	1.978142376989211026e+00	8.069446995236247977e-01	1.590716478566274645e+02
5.582289894817666839e-03	1.846808970079242584e+01	1.971582154940905607e+00	8.054578234905136469e-01	1.556723224918864332e+02
5.700590625404708227e-03	1.826173031069593833e+01	1.964981913058617691e+00	8.039590648781067550e-01	1.523444169367545271e+02
5.821398402942216249e-03	1.805713022353512898e+01	1.958341981849388347e+00	8.024483917246297837e-01	1.490875123080442108e+02
5.944766357147824969e-03	1.785434148891578587e+01	1.951663386583560644e+00	8.009259282714403794e-01	1.459009319014847108e+02
6.070748743672167193e-03	1.765329569149905353e+01	1.944944904686161991e+00	7.993913174871394300e-01	1.427824659691014517e+02
6.199400967959818945e-03	1.745394240385309814e+01	1.938185669149246948e+00	7.978442681073169007e-01	1.397295607780462774e+02
6.330779609615908021e-03	1.725629373332138883e+01	1.931385931455934291e+00	7.962847344194420307e-01	1.367414741091664041e+02
6.464942447289089879e-03	1.706040049406236037e+01	1.924546868598989713e+00	7.947128509869353374e-01	1.338180431689255272e+02
6.601948484081890736e-03	1.686619347358863052e+01	1.917667177168404402e+00	7.931282336503473473e-01	1.309568805876029103e+02
6.741857973499477616e-03	1.667362635129480708e+01	1.910745950239746804e+00	7.915305827095350244e-01	1.281558090312716729e+02
6.884732445948405985e-03	1.648271112115873294e+01	1.903783548730112907e+00	7.899198550656340023e-01	1.254140542265254368e+02
7.030634735796891313e-03	1.629349733341714668e+01	1.896781120408578047e+00	7.882961770782138666e-01	1.227318158600012623e+02
7.179629009008595825e-03	1.610591519385328496e+01	1.889737294498210929e+00	7.866591379244700644e-01	1.201063505661159638e+02
7.331780791361950343e-03	1.591992224437406911e+01	1.882651246067694739e+00	7.850084390062860296e-01	1.175360414691117654e+02
7.487156997267587974e-03	1.573553036962156604e+01	1.875523334231750328e+00	7.833440277792406148e-01	1.150200665027555544e+02
7.645825959196438613e-03	1.555278783125871023e+01	1.868354765020956876e+00	7.816660302830257256e-01	1.125587082642399963e+02
7.807857457731475631e-03	1.537162445492164409e+01	1.861144008747410927e+00	7.799739965091533334e-01	1.101492280509989143e+02
7.973322752256328111e-03	1.519200141270184190e+01	1.853890379037872460e+00	7.782676359714729708e-01	1.077904601350697078e+02
8.142294612294233985e-03	1.501393048478788117e+01	1.846594230266973558e+00	7.765468888088159494e-01	1.054814203488476920e+02
8.314847349511189298e-03	1.483745862242539459e+01	1.839256780008948544e+00	7.748118771109063774e-01	1.032223484988367801e+02
8.491056850397209546e-03	1.466251545992137650e+01	1.831876505627317853e+00	7.730621280086590330e-01	1.010109300780486734e+02
8.671000609640279119e-03	1.448906557949673513e+01	1.824452660971318529e+00	7.712973324642569128e-01	9.884592449527127656e+01
8.854757764207504128e-03	1.431712066029239772e+01	1.816985672087733095e+00	7.695174275342984149e-01	9.672652638363886979e+01
9.042409128148579806e-03	1.414672632667312158e+01	1.809476769236634253e+00	7.677225281796854484e-01	9.465285190777849778e+01
9.234037228136720080e-03	1.397781219698343946e+01	1.801924414473624614e+00	7.659121401074489022e-01	9.262299694568666553e+01
9.429726339762870002e-03	1.381034605369303669e+01	1.794327862826643250e+00	7.640859474952825803e-01	9.063553143694458925e+01
9.629562524599030379e-03	1.364433948087063087e+01	1.786687536646999197e+00	7.622438781588560808e-01	8.868994850129692509e+01
9.833633668047030499e-03	1.347983676066199443e+01	1.779004862997457526e+00	7.603860608748344019e-01	8.678629106588704190e+01
1.004202951798940403e-02	1.331676765906470727e+01	1.771278059817169126e+00	7.585119477752091388e-01	8.492274174864549252e+01
1.025484172425938229e-02	1.315510296156459802e+01	1.763506502648714669e+00	7.566212272513321846e-01	8.309798657579045766e+01
1.047216387894729824e-02	1.299485416055602016e+01	1.755690668886821904e+00	7.547138212037096672e-01	8.131181433344708864e+01
1.069409155756119272e-02	1.283606418546072625e+01	1.747831994259173127e+00	7.527898551172366171e-01	7.956394387036033322e+01
1.092072236105970547e-02	1.267866310259293350e+01	1.739928620313578422e+00	7.508487468139873888e-01	7.785283398042443537e+01
1.115215595877575537e-02	1.252262451148861366e+01	1.731980021144832183e+00	7.488901859719881982e-01	7.617732218827813995e+01
1.138849413224978825e-02	1.236795981823982160e+01	1.723986668367562425e+00	7.469140837600816152e-01	7.453718861270975538e+01
1.162984081999205582e-02	1.221471059026149319e+01	1.715950050086147538e+00	7.449205620564985919e-01	7.293213528507564547e+01
1.187630216319339981e-02	1.206280733662540250e+01	1.707868280292331953e+00	7.429090098137012266e-01	7.136079369418034446e+01
1.212798655240480798e-02	1.191222629270410138e+01	1.699740849880499782e+00	7.408791104792131765e-01	6.982214591961607653e+01
1.238500467520621366e-02	1.176297878302448829e+01	1.691568273903589770e+00	7.388307702528491561e-01	6.831584030360460247e+01
1.264746956488544717e-02	1.161510500688190461e+01	1.683352121965181469e+00	7.367641077807323136e-01	6.684178366640493607e+01
1.291549665014883955e-02	1.146853604781502689e+01	1.675090377697947552e+00	7.346784687973303418e-01	6.539860875653302230e+01
1.318920380588532899e-02	1.132325060799506211e+01	1.666782649495768931e+00	7.325735440877959581e-01	6.398542610360019012e+01
1.346871140500627631e-02	1.117925993524633732e+01	1.658429420919429242e+00	7.304492208245014773e-01	6.260181165167765016e+01
1.375414237138396570e-02	1.103660285634595972e+01	1.650032427723650663e+00	7.283056402351749670e-01	6.124791278425487207e+01
1.404562223391196511e-02	1.089521115277470820e+01	1.641589540058318475e+00	7.261421033524383395e-01	5.992224549847168191e+01
1.434327918171109106e-02	1.075506583290156826e+01	1.633100252394163343e+00	7.239582535917821193e-01	5.862407470786720864e+01
1.464724412050539583e-02	1.061617807201598573e+01	1.624565231760617623e+00	7.217539892829363257e-01	5.735303482602271430e+01
1.495765073019278586e-02	1.047858532366404560e+01	1.615986146975759041e+00	7.195294281346115151e-01	5.610931292077670207e+01
1.527463552363575450e-02	1.034222017999169374e+01	1.607360831152970793e+00	7.172838433996310270e-01	5.489139035553485968e+01
1.559833790669801906e-02	1.020706580407787456e+01	1.598688941835559429e+00	7.150168978318791613e-01	5.369871597635991378e+01
1.592890023955338338e-02	1.007313330340818958e+01	1.589971254525755828e+00	7.127284956643510361e-01	5.253097471090476489e+01
1.626646789929399317e-02	9.940458757592402605e+00	1.581209439237233338e+00	7.104187435068953782e-01	5.138825836959428983e+01
1.661118934386526108e-02	9.808975675865694299e+00	1.572401296419628558e+00	7.080868872686041371e-01	5.026917449454138165e+01
1.696321617735579643e-02	9.678669231242404081e+00	1.563546585196543992e+00	7.057326000897483631e-01	4.917333681743914298e+01
1.732270321667098503e-02	9.549550468658305036e+00	1.554646117304710362e+00	7.033557788021316259e-01	4.810033801770349271e+01
1.768980855961942850e-02	9.421654093820874820e+00	1.545701586867276989e+00	7.009565166494030608e-01	4.705026369332555447e+01
1.806469365444235767e-02	9.294914632044035230e+00	1.536710794219757092e+00	6.985340391272031324e-01	4.602189719727936534e+01
1.844752337081655841e-02	9.169319129154922976e+00	1.527673527643770734e+00	6.960880035720289349e-01	4.501487012888621564e+01
1.883846607236187159e-02	9.044878570897155967e+00	1.518590677326456584e+00	6.936183067024117577e-01	4.402879606353682362e+01
1.923769369068539445e-02	8.921626295212432112e+00	1.509464044728517917e+00	6.911250538169391167e-01	4.306374235296053143e+01
1.964538180099485026e-02	8.799497930666928980e+00	1.500291368975528838e+00	6.886074355411154757e-01	4.211864780061983282e+01
2.006170969931423895e-02	8.678482266623767316e+00	1.491072547243933011e+00	6.860651263608448236e-01	4.119310805581415735e+01
2.048686048133601528e-02	8.558590234705931721e+00	1.481808518022638577e+00	6.834980269097399308e-01	4.028680241884234192e+01
2.092102112294418406e-02	8.439853807620716353e+00	1.472501205779386035e+00	6.809062507762675409e-01	3.939980269597325702e+01
2.136438256244391209e-02	8.322209801775414917e+00	1.463148270964854669e+00	6.782889418426283346e-01	3.853114429562313603e+01
2.181713978453380873e-02	8.205648626611935725e+00	1.453749633485264869e+00	6.756457643186186690e-01	3.768040112036593570e+01
2.227949190605761978e-02	8.090181163169733125e+00	1.444306412581662036e+00	6.729766461126858168e-01	3.684733763571877319e+01
2.275164226357336353e-02	7.975838024011864036e+00	1.434820560582082738e+00	6.702816960047682793e-01	3.603199893018769728e+01
2.323379850277806913e-02	7.862557289890207635e+00	1.425289685087272717e+00	6.675600214834929158e-01	3.523350935272835471e+01
2.372617266982774559e-02	7.750330872852558173e+00	1.415713831497684705e+00	6.648112950346122263e-01	3.445144597112246032e+01
2.422898130459259780e-02	7.639169607335624335e+00	1.406094142535520231e+00	6.620354398053192035e-01	3.368563726168491002e+01
2.474244553588843265e-02	7.529102751185811293e+00	1.396432789354422166e+00	6.592326062562191558e-01	3.293612266665331134e+01
2.526679117872631872e-02	7.420069719786664741e+00	1.386727211133724769e+00	6.564018618515878867e-01	3.220206379944485775e+01
