# Data associated with arXiv:2110.09653
# 
# Scale-free J-factor angular distribution, J_S(theta), of a nfw1-4 dark matter distribution (see Eq. 8 and the surrounding discussion)
# 
# Published: 3/29/22, Jack Runburg, contact: runburg@hawaii.edu
# 
# 
# -----------------------------------------------------------------
# 
# 	 tilde theta 		 | 	 tilde J s-wave 		 | 	 tilde J p-wave 		 | 	 tilde J d-wave 		 | 	 tilde J sommerfeld 
# 
# -----------------------------------------------------------------
1.000000000000000021e-03	2.667246958296273369e+05	2.453955557572136240e+04	6.548463670006645771e+03	1.441573815808007028e+06
1.021192151037671062e-03	2.568139528554338031e+05	2.391013189301261082e+04	6.441330865789072959e+03	1.379413551425941521e+06
1.042833409340945643e-03	2.472757264875811816e+05	2.329682502582295274e+04	6.335813548062030350e+03	1.319965922078640899e+06
1.064933292458827233e-03	2.380870457713155483e+05	2.269878110379097780e+04	6.231830720893655780e+03	1.263053075618874747e+06
1.087501519637659123e-03	2.292370749343655771e+05	2.211569102750455568e+04	6.129369162782074454e+03	1.208576526162648806e+06
1.110548016095517111e-03	2.207172539846527507e+05	2.154742740171714468e+04	6.028443346053697496e+03	1.156461165987071581e+06
1.134082917387199208e-03	2.125174762040079804e+05	2.099368565449735615e+04	5.929038793799372797e+03	1.106617452016965253e+06
1.158116573861711456e-03	2.046182574429594679e+05	2.045374293079188283e+04	5.831087427919128459e+03	1.058899158227810403e+06
1.182659555214217667e-03	1.970102912699995504e+05	1.992732138075447074e+04	5.734576927320174036e+03	1.013222455730964895e+06
1.207722655134462354e-03	1.896863207703092776e+05	1.941430672489503922e+04	5.639519298472136143e+03	9.695300596545280423e+05
1.233316896053688856e-03	1.826373110881666653e+05	1.891441449970212852e+04	5.545901569469410788e+03	9.277403270332894754e+05
1.259453533992170365e-03	1.758467368124354980e+05	1.842697771996734809e+04	5.453654062826335576e+03	8.877304255433261860e+05
1.286144063509461061e-03	1.693066052563428530e+05	1.795177919791328895e+04	5.362772673055458654e+03	8.494371107708484633e+05
1.313400222759557485e-03	1.630107628593413101e+05	1.748867359204987952e+04	5.273261424976922171e+03	8.128030904082506895e+05
1.341233998653187541e-03	1.569511488178733562e+05	1.703743039457995110e+04	5.185112313372835160e+03	7.777648950347267091e+05
1.369657632129505243e-03	1.511137482369219069e+05	1.659744029006404162e+04	5.098260194018377661e+03	7.442202345169263426e+05
1.398683623539492566e-03	1.454916969144073664e+05	1.616852125995308415e+04	5.012701929356256187e+03	7.121144184470830951e+05
1.428324738143458596e-03	1.400797756356778555e+05	1.575052761007114350e+04	4.928439499332349442e+03	6.814000082829067251e+05
1.458594011725036863e-03	1.348708057152018591e+05	1.534325086917124827e+04	4.845465619005092776e+03	6.520252097038384527e+05
1.489504756324154782e-03	1.298529022319779615e+05	1.494614072045793728e+04	4.763718022572035807e+03	6.239002339647877961e+05
1.521070566091505720e-03	1.250201703409935872e+05	1.455902529776801020e+04	4.683193056348556638e+03	5.969813804219389567e+05
1.553305323267072666e-03	1.203681821427425311e+05	1.418179615923325400e+04	4.603895787791213479e+03	5.712315363938510418e+05
1.586223204285366938e-03	1.158905553119583201e+05	1.381424176125817394e+04	4.525816155397096736e+03	5.466019603167935275e+05
1.619838686010041055e-03	1.115772119171932427e+05	1.345588237794907945e+04	4.448897856406214487e+03	5.230231626511257491e+05
1.654166552100628336e-03	1.074230897446556628e+05	1.310654466018550920e+04	4.373134197278131978e+03	5.004545208369604661e+05
1.689221899514206692e-03	1.034244311806396436e+05	1.276615551306670022e+04	4.298533901143997355e+03	4.788663593929706258e+05
1.725020145144853453e-03	9.957557080254187167e+04	1.243448283986587194e+04	4.225079558100877875e+03	4.582165533439177671e+05
1.761577032603788440e-03	9.586796354205773969e+04	1.211112421515631650e+04	4.152723977955793089e+03	4.384476763057417120e+05
1.798908639143220224e-03	9.229726236575283110e+04	1.179591596722540271e+04	4.081459102937669286e+03	4.195254917063562316e+05
1.837031382726912916e-03	8.886027751122534391e+04	1.148880506601037268e+04	4.011296870988813225e+03	4.014275818266727147e+05
1.875962029250603357e-03	8.555198728360480163e+04	1.118955949636729565e+04	3.942215718234382621e+03	3.841150812285004649e+05
1.915717699915417882e-03	8.236514683870527369e+04	1.089782415688090259e+04	3.874173698836825679e+03	3.675405301860290347e+05
1.956315878757565116e-03	7.929602342090809543e+04	1.061345962148611397e+04	3.807164199672806262e+03	3.516775434936469537e+05
1.997774420337589726e-03	7.634190842126589268e+04	1.033639862635581994e+04	3.741194985553769129e+03	3.365037333002988598e+05
2.040111557592579582e-03	7.349835682740702759e+04	1.006644961854736721e+04	3.676249408740028684e+03	3.219890188073093304e+05
2.083345909854779961e-03	7.075922660117803025e+04	9.803281445971477297e+03	3.612285598475557890e+03	3.080934605272404733e+05
2.127496491040134757e-03	6.812131258079153486e+04	9.546783900568625540e+03	3.549301007954456509e+03	2.947944550952095888e+05
2.172582718010372237e-03	6.558231393103850132e+04	9.296876122466230299e+03	3.487297150684959888e+03	2.820731925188642344e+05
2.218624419112281976e-03	6.313830115812846634e+04	9.053397336494501360e+03	3.426262802843977170e+03	2.699050550104290596e+05
2.265641842897974604e-03	6.078406751413476013e+04	8.816038237814209424e+03	3.366153427701777673e+03	2.582550865988353908e+05
2.313655667029933423e-03	5.851686097262967087e+04	8.584699085099082367e+03	3.306967912458444516e+03	2.471052838111522142e+05
2.362687007374795686e-03	5.633472635290082690e+04	8.359322011309452137e+03	3.248710442133824017e+03	2.364408035739924817e+05
2.412757427289825233e-03	5.423419409978033946e+04	8.139745092930842475e+03	3.191367599635203533e+03	2.262389057183457189e+05
2.463888947106213784e-03	5.221085062817701692e+04	7.925703799321343467e+03	3.134901343955650191e+03	2.164726789747833973e+05
2.516104053813336943e-03	5.026233307921735832e+04	7.717091626971229744e+03	3.079305949947341560e+03	2.071251791410773294e+05
2.569425710948245768e-03	4.838697934024287679e+04	7.513878164765375004e+03	3.024591332803461682e+03	1.981848059354792058e+05
2.623877368694733318e-03	4.658172946993508231e+04	7.315888748785045209e+03	2.970737127292536115e+03	1.896319653288306436e+05
2.679482974196439188e-03	4.484284246164275828e+04	7.122902179536186850e+03	2.917712352700308202e+03	1.814442129733871843e+05
2.736266982088478034e-03	4.316828968129686837e+04	6.934820361367044825e+03	2.865510394659856047e+03	1.736075409342183848e+05
2.794254365252289707e-03	4.155665755622199504e+04	6.751622725883114072e+03	2.814143707310623995e+03	1.661131217121802911e+05
2.853470625798387814e-03	4.000525032889268186e+04	6.573137202156166495e+03	2.763587364914938917e+03	1.589430138805000170e+05
2.913941806281861776e-03	3.851089728069012199e+04	6.399166575172507692e+03	2.713813188186451043e+03	1.520787343017749663e+05
2.975694501155571117e-03	3.707185680274779588e+04	6.229632452327598912e+03	2.664817655812017165e+03	1.455095243405413930e+05
3.038755868466027146e-03	3.568692615697004658e+04	6.064498256168816624e+03	2.616607133286144744e+03	1.392263871925821295e+05
3.103153641797168783e-03	3.435373287883568264e+04	5.903623822869352807e+03	2.569163739419196190e+03	1.332154660950923280e+05
3.168916142467233243e-03	3.306958976334545878e+04	5.746825478814132111e+03	2.522459322045522185e+03	1.274611003693630773e+05
3.236072291984112663e-03	3.183300168762474277e+04	5.594040064903821076e+03	2.476492674312029521e+03	1.219540721900155622e+05
3.304651624764658874e-03	3.064294481712604102e+04	5.445225476665560564e+03	2.431266763442390129e+03	1.166869273370723677e+05
3.374684301123556836e-03	2.949733325742006855e+04	5.300257175300923336e+03	2.386765766693740261e+03	1.116481497171787196e+05
3.446201120537424525e-03	2.839388972379728511e+04	5.158971599876007531e+03	2.342963473521240758e+03	1.068241733667359949e+05
3.519233535190044709e-03	2.733133075540896607e+04	5.021301377424037128e+03	2.299854668921406301e+03	1.022074757310363348e+05
3.593813663804625805e-03	2.630878436828564736e+04	4.887224389986628921e+03	2.257447087009528332e+03	9.779230322516711021e+04
3.669974305769219299e-03	2.532441835129574247e+04	4.756613470942229469e+03	2.215721547537808419e+03	9.356805293543101288e+04
3.747748955561452412e-03	2.437630291517334263e+04	4.629332405063919396e+03	2.174656719431084639e+03	8.952444644995074486e+04
3.827171817478984984e-03	2.346333635374643200e+04	4.505312234478353275e+03	2.134245670610956040e+03	8.565438262417368242e+04
3.908277820682117681e-03	2.258477561708469148e+04	4.384542685676951805e+03	2.094499080498073909e+03	8.195334121910827525e+04
3.991102634555192957e-03	2.173901277364700945e+04	4.266897199700551027e+03	2.055395255066447135e+03	7.841232517397108313e+04
4.075682684393532908e-03	2.092441259182117574e+04	4.152255803503374409e+03	2.016914647659804587e+03	7.502257024688045203e+04
4.162055167422817371e-03	2.014002943288815004e+04	4.040563564961159955e+03	1.979053651919134609e+03	7.177840714287325682e+04
4.250258069157961290e-03	1.938522976185205334e+04	3.931803168375218320e+03	1.941818393469337479e+03	6.867612827905466838e+04
4.340330180108637088e-03	1.865860369157874447e+04	3.825864392467899052e+03	1.905189920798763751e+03	6.570790208823815919e+04
4.432311112838861061e-03	1.795876566070447734e+04	3.722634384849590333e+03	1.869147858194661694e+03	6.286636955819404102e+04
4.526241319388085715e-03	1.728490403405100733e+04	3.622071379925233941e+03	1.833691900693232810e+03	6.014722956393595086e+04
4.622162109061505458e-03	1.663647833186424396e+04	3.524149622012821510e+03	1.798824394098760422e+03	5.754670120116988255e+04
4.720115666597336779e-03	1.601225334953024867e+04	3.428775399434802694e+03	1.764530333712296397e+03	5.505860753847122396e+04
4.820145070719144588e-03	1.541105513166855599e+04	3.335847164088837417e+03	1.730790462188996344e+03	5.267684484060678369e+04
4.922294313081310678e-03	1.483218709799644967e+04	3.245325503141721583e+03	1.697603834680509635e+03	5.039753045632968133e+04
5.026608317615998724e-03	1.427518787162616354e+04	3.157190443213510662e+03	1.664973388578326194e+03	4.821780540656553785e+04
5.133132960290130720e-03	1.373897615743983624e+04	3.071352756272556235e+03	1.632883160222553215e+03	4.613236597556099150e+04
5.241915089281041530e-03	1.322255733335148943e+04	2.987724402834422108e+03	1.601316132371197000e+03	4.413598440844038851e+04
5.353002545579732367e-03	1.272533360119998179e+04	2.906262967559523986e+03	1.570268211346149428e+03	4.222544827154724044e+04
5.466444184030696055e-03	1.224691085464521711e+04	2.826960038266182892e+03	1.539746698205947041e+03	4.039856484709204233e+04
5.582289894817666839e-03	1.178634326768968640e+04	2.749725440788692595e+03	1.509733092982714425e+03	3.865047784515744570e+04
5.700590625404708227e-03	1.134278819138636754e+04	2.674486246411073353e+03	1.480214211541360100e+03	3.697721350695373258e+04
5.821398402942216249e-03	1.091573263414805660e+04	2.601203844990938251e+03	1.451185924377099809e+03	3.537590946280768549e+04
5.944766357147824969e-03	1.050483972318440829e+04	2.529870924394662325e+03	1.422654856166676836e+03	3.384471621419823350e+04
6.070748743672167193e-03	1.010928275643936468e+04	2.460402142563530106e+03	1.394601487093476180e+03	3.237961259805082227e+04
6.199400967959818945e-03	9.728347863019984288e+03	2.392731641800200578e+03	1.367013378912608687e+03	3.097716252206080026e+04
6.330779609615908021e-03	9.361594856413248635e+03	2.326829943460958020e+03	1.339889073853123591e+03	2.963508435012248810e+04
6.464942447289089879e-03	9.008735582949873788e+03	2.262682875618097569e+03	1.313231520741054965e+03	2.835177157874370096e+04
6.601948484081890736e-03	8.669047992680665629e+03	2.200219608127328229e+03	1.287025862976623785e+03	2.712385024186553710e+04
6.741857973499477616e-03	8.341927331694285385e+03	2.139378724260668150e+03	1.261259252846913569e+03	2.594841080947468436e+04
6.884732445948405985e-03	8.026995912405769559e+03	2.080133711855727142e+03	1.235929787060422314e+03	2.482369223869227426e+04
7.030634735796891313e-03	7.724007073696800944e+03	2.022471908316057352e+03	1.211040298406582451e+03	2.374816694127492883e+04
7.179629009008595825e-03	7.432330622749456779e+03	1.966327596766268016e+03	1.186575876408842078e+03	2.271905919605875533e+04
7.331780791361950343e-03	7.151454257918590883e+03	1.911647800205058729e+03	1.162525592467819479e+03	2.173402408771113915e+04
7.487156997267587974e-03	6.881053940613443956e+03	1.858404607632471652e+03	1.138886087552230265e+03	2.079139209873251457e+04
7.645825959196438613e-03	6.620918366545883146e+03	1.806592884148701842e+03	1.115663136675024589e+03	1.989009315643143054e+04
7.807857457731475631e-03	6.370497901135020584e+03	1.756147266353889563e+03	1.092839950518312435e+03	1.902767755010543624e+04
7.973322752256328111e-03	6.129358570535369836e+03	1.707022347091499114e+03	1.070406539301398880e+03	1.820217002268798024e+04
8.142294612294233985e-03	5.897222386601369180e+03	1.659193760129674956e+03	1.048360392528049942e+03	1.741223399276205964e+04
8.314847349511189298e-03	5.673908189929456057e+03	1.612656014681748502e+03	1.026706366305020310e+03	1.665698945592208474e+04
8.491056850397209546e-03	5.458936937823908011e+03	1.567349465784505583e+03	1.005428743900314430e+03	1.593427119208529075e+04
8.671000609640279119e-03	5.251941014358860230e+03	1.523233044755917490e+03	9.845182381432337024e+02	1.524250956135082924e+04
8.854757764207504128e-03	5.052681956129235914e+03	1.480288268931449466e+03	9.639742909079894844e+02	1.458061719752259887e+04
9.042409128148579806e-03	4.861004321957917455e+03	1.438504361091498140e+03	9.437977735490026134e+02	1.394772304086727127e+04
9.234037228136720080e-03	4.676490878059245006e+03	1.397830958399166320e+03	9.239757944081983396e+02	1.334214277736671829e+04
9.429726339762870002e-03	4.498830222217643495e+03	1.358230456009788213e+03	9.044993363562119839e+02	1.276250753714212988e+04
9.629562524599030379e-03	4.327817814600712154e+03	1.319685089624920010e+03	8.853672912891630631e+02	1.220787449706797997e+04
9.833633668047030499e-03	4.163320167901072637e+03	1.282187806668604935e+03	8.665826499392853748e+02	1.167759125435422357e+04
1.004202951798940403e-02	4.004974126293586778e+03	1.245690431719737489e+03	8.481314306256894042e+02	1.117018103304128817e+04
1.025484172425938229e-02	3.852515906377497231e+03	1.210161040871145815e+03	8.300058102402615532e+02	1.068451702069153362e+04
1.047216387894729824e-02	3.705770081212808691e+03	1.175580804651071276e+03	8.122030116707325078e+02	1.021981944932029546e+04
1.069409155756119272e-02	3.564621917658712846e+03	1.141946861398944293e+03	7.947278883550317232e+02	9.775548125961317055e+03
1.092072236105970547e-02	3.428755538541309761e+03	1.109212593468822433e+03	7.775659511145469196e+02	9.350411831734696534e+03
1.115215595877575537e-02	3.297947496121989388e+03	1.077350424304181161e+03	7.607108662284439333e+02	8.943521813528122948e+03
1.138849413224978825e-02	3.172047347235424695e+03	1.046344994545875807e+03	7.441603930009021042e+02	8.554207125656350399e+03
1.162984081999205582e-02	3.050956389653288170e+03	1.016190278551740676e+03	7.279166344915721538e+02	8.181991713083637478e+03
1.187630216319339981e-02	2.934400051408995751e+03	9.868462874301458214e+02	7.119675088228267441e+02	7.825836738417391643e+03
1.212798655240480798e-02	2.822189049925845211e+03	9.582875168738773937e+02	6.963065849527392857e+02	7.484956257150276542e+03
1.238500467520621366e-02	2.714194380712963266e+03	9.305019162675920370e+02	6.809334400069112689e+02	7.158819577300523633e+03
1.264746956488544717e-02	2.610331054837340616e+03	9.034823303891554360e+02	6.658488036328394628e+02	6.847027525643442459e+03
1.291549665014883955e-02	2.510360561180488276e+03	8.771925290248232159e+02	6.510407537774278808e+02	6.548673993251951288e+03
1.318920380588532899e-02	2.414122554734877212e+03	8.516104092608089786e+02	6.365037969609029460e+02	6.263133197015870792e+03
1.346871140500627631e-02	2.321506426435744288e+03	8.267229395775518697e+02	6.222362019783271307e+02	5.989947249833801834e+03
1.375414237138396570e-02	2.232438926674108643e+03	8.025268730680959379e+02	6.082409826594337119e+02	5.728781325242293860e+03
1.404562223391196511e-02	2.146713005489926218e+03	7.789869354367802998e+02	5.945053557643193471e+02	5.478871035109040349e+03
1.434327918171109106e-02	2.064192827046308594e+03	7.560838189322471408e+02	5.810240878908798550e+02	5.239705998630948670e+03
1.464724412050539583e-02	1.984783564959686601e+03	7.338066845382176098e+02	5.677961414126982618e+02	5.010891602896700533e+03
1.495765073019278586e-02	1.908422027493087398e+03	7.121515104269620906e+02	5.548237937545300156e+02	4.792151477039974452e+03
1.527463552363575450e-02	1.834928594042783061e+03	6.910873076293325994e+02	5.420957521332641136e+02	4.582851939725761440e+03
1.559833790669801906e-02	1.764188186738193963e+03	6.705959382801578386e+02	5.296064151284657555e+02	4.382542886517952866e+03
1.592890023955338338e-02	1.696119519530474463e+03	6.506688768122221518e+02	5.173555924959699723e+02	4.190922584602768438e+03
1.626646789929399317e-02	1.630668024282085980e+03	6.313006424139698538e+02	5.053439676787574513e+02	4.007746054548262691e+03
1.661118934386526108e-02	1.567677979504575887e+03	6.124641018273619011e+02	4.935618503707337368e+02	3.832465225402842862e+03
1.696321617735579643e-02	1.507051887652161213e+03	5.941436714425865375e+02	4.820043652874886675e+02	3.664731708753168277e+03
1.732270321667098503e-02	1.448720078387087597e+03	5.763296420379574556e+02	4.706697780289683237e+02	3.504271052528918972e+03
1.768980855961942850e-02	1.392635383520844925e+03	5.590195209731872410e+02	4.595604962136308700e+02	3.350888007041285618e+03
1.806469365444235767e-02	1.338662891406817607e+03	5.421869811409885642e+02	4.486661077757192970e+02	3.204121603547507675e+03
1.844752337081655841e-02	1.286719993382877192e+03	5.258184346725257683e+02	4.379823525215844597e+02	3.063677388872295069e+03
1.883846607236187159e-02	1.236746982759031425e+03	5.099060686078984190e+02	4.275082623475099695e+02	2.929328475605288531e+03
1.923769369068539445e-02	1.188703047345190271e+03	4.944462849421437340e+02	4.172450521191672124e+02	2.800910824782246436e+03
1.964538180099485026e-02	1.142471383263673488e+03	4.794160226483047040e+02	4.071834693761888957e+02	2.678039565162492181e+03
2.006170969931423895e-02	1.097981991340030845e+03	4.648029347046215207e+02	3.973194336416449346e+02	2.560459524687694284e+03
2.048686048133601528e-02	1.055183710939127877e+03	4.506001134330457489e+02	3.876520015242916202e+02	2.447993947657561421e+03
2.092102112294418406e-02	1.014041193494606432e+03	4.368040469226378377e+02	3.781822480187952351e+02	2.340497890414485028e+03
2.136438256244391209e-02	9.744533822077777359e+02	4.233938200378949546e+02	3.689013371510186516e+02	2.237640006138724857e+03
2.181713978453380873e-02	9.363609569852666255e+02	4.103589517666532629e+02	3.598058655984991674e+02	2.139225681261824775e+03
2.227949190605761978e-02	8.997200864673204705e+02	3.976919802299755133e+02	3.508939288684559301e+02	2.045088912278577936e+03
2.275164226357336353e-02	8.645001230248673210e+02	3.853913258945670464e+02	3.421679342533059298e+02	1.955117932654902688e+03
2.323379850277806913e-02	8.306136954175619849e+02	3.734368539390264914e+02	3.336184105340407200e+02	1.869034569851842434e+03
2.372617266982774559e-02	7.980105276538922681e+02	3.618190439315814046e+02	3.252420164521025754e+02	1.786668692456969666e+03
2.422898130459259780e-02	7.666530737225269831e+02	3.505327688543438853e+02	3.170384998295610330e+02	1.707892240450128384e+03
2.474244553588843265e-02	7.365147344395176106e+02	3.395746154944058048e+02	3.090082473843510229e+02	1.632602422227506850e+03
2.526679117872631872e-02	7.075200250028919982e+02	3.289274131210171959e+02	3.011432009269940977e+02	1.560569343145367839e+03
