# Data associated with arXiv:2110.09653
# 
# Scale-free velocity distribution, f(E), of a einasto0-20 dark matter distribution (see Eq. 13 and the surrounding discussion)
# 
# Published: 3/29/22, Jack Runburg, contact: runburg@hawaii.edu
# 
# 
# -----------------------------------------------------------------
# 
# 	 tilde E 		 | 		 tilde f
# 
# -----------------------------------------------------------------
1.572744509700548483e-07	7.808077237979602051e+11
1.621764074535535886e-07	7.513760015541932373e+11
1.672295782447392914e-07	7.218160033472926025e+11
1.724385732475936723e-07	6.922792101024498291e+11
1.778081410095084296e-07	6.632373049364710693e+11
1.833431728259227335e-07	6.342149690407249756e+11
1.890487069642732457e-07	6.060017089898510742e+11
1.949299330106277035e-07	5.790462631686904297e+11
2.009921963425087046e-07	5.532924422690151367e+11
2.072410027314753955e-07	5.286865717511506958e+11
2.136820230791490594e-07	5.051773791062333374e+11
2.203210982904762539e-07	4.827158861764240723e+11
2.271642442880970218e-07	4.612553063013416138e+11
2.342176571718382223e-07	4.407509460951868286e+11
2.414877185274114779e-07	4.211601116314880981e+11
2.489810008885591324e-07	4.024420188334304199e+11
2.567042733569629290e-07	3.845577078842557373e+11
2.646645073843745315e-07	3.674699614949520264e+11
2.728688827215557647e-07	3.511432268153906250e+11
2.813247935387039578e-07	3.355435408826539307e+11
2.900398547222237756e-07	3.206384593843684082e+11
2.990219083527745843e-07	3.063969886273684082e+11
3.082790303697231914e-07	2.927895205738700562e+11
3.178195374272139687e-07	2.797877707804516602e+11
3.276519939472447559e-07	2.673647191056146240e+11
3.377852193752889890e-07	2.554945531106752014e+11
3.482282956441110090e-07	2.441526139758085327e+11
3.589905748516434847e-07	2.333153448468492432e+11
3.700816871588791024e-07	2.229602414995866089e+11
3.815115489139694448e-07	2.130658052156245422e+11
3.932903710088083675e-07	2.036114977838731689e+11
4.054286674746356333e-07	1.945776984885177612e+11
4.179372643232923824e-07	1.859456630691867981e+11
4.308273086409886121e-07	1.776974844728656921e+11
4.441102779416344274e-07	1.698160554071929932e+11
4.577979897869159955e-07	1.622850325534384460e+11
4.719026116805850759e-07	1.550888023783685913e+11
4.864366712445266075e-07	1.482124484853345642e+11
5.014130666844804881e-07	1.416417204366446838e+11
5.168450775534060196e-07	1.353630039535121002e+11
5.327463758207563790e-07	1.293632924745430298e+11
5.491310372561533486e-07	1.236301599695421143e+11
5.660135531361100370e-07	1.181517349740752411e+11
5.834088422827953853e-07	1.129166758056015167e+11
6.013322634439444751e-07	1.079141468593664246e+11
6.197996280233926199e-07	1.031337959958119965e+11
6.388272131718487561e-07	9.856573291862802124e+10
6.584317752478515618e-07	9.420050853842929077e+10
6.786305636591197071e-07	9.002909524254598999e+10
6.994413350946998126e-07	8.604286806272309875e+10
7.208823681587207867e-07	8.223358668306993103e+10
7.429724784167018065e-07	7.859337824825086975e+10
7.657310338658044184e-07	7.511472094781773376e+10
7.891779708405846158e-07	7.179042832698088074e+10
8.133338103661852021e-07	6.861363431164083862e+10
8.382196749712446971e-07	6.557777889156266022e+10
8.638573059730038183e-07	6.267659445222025299e+10
8.902690812475988929e-07	5.990409271470111847e+10
9.174780334986757640e-07	5.725455226235725403e+10
9.455078690380010213e-07	5.472250662204745483e+10
9.743829870919292830e-07	5.230273288267354584e+10
1.004128499648062989e-06	4.999024082095701599e+10
1.034770251856816606e-06	4.778026250948339844e+10
1.066334843002863963e-06	4.566824240054478455e+10
1.098849648062036339e-06	4.364982784076103210e+10
1.132342839859415737e-06	4.172086001923703003e+10
1.166843411845015550e-06	3.987736531513764954e+10
1.202381201503657238e-06	3.811554703505999756e+10
1.238986914416208361e-06	3.643177751663910675e+10
1.276692148989817386e-06	3.482259059072180939e+10
1.315529421875065760e-06	3.328467437451368713e+10
1.355532194088689306e-06	3.181486438995473099e+10
1.396734897860700211e-06	3.041013698860932922e+10
1.439172964225542104e-06	2.906760307273473358e+10
1.482882851377133128e-06	2.778450209293312836e+10
1.527902073808341136e-06	2.655819631705258560e+10
1.574269232255976845e-06	2.538616535396437836e+10
1.622024044472733608e-06	2.426600092337141418e+10
1.671207376848363482e-06	2.319540185667964935e+10
1.721861276902608166e-06	2.217216932319131088e+10
1.774029006673330265e-06	2.119420226919883347e+10
1.827755077023568360e-06	2.025949306042874146e+10
1.883085282892055072e-06	1.936612331884610367e+10
1.940066739512366428e-06	1.851225994632686996e+10
1.998747919626295204e-06	1.769615132453292465e+10
2.059178691718043815e-06	1.691612368544648170e+10
2.121410359296105904e-06	1.617057764343248558e+10
2.185495701250808625e-06	1.545798488322840118e+10
2.251489013315810536e-06	1.477688499319445229e+10
2.319446150662811001e-06	1.412588244247171974e+10
2.389424571659486541e-06	1.350364369185953331e+10
2.461483382821134202e-06	1.290889443429659843e+10
2.535683384987739094e-06	1.234041695655143929e+10
2.612087120758452168e-06	1.179704762178019905e+10
2.690758923216806023e-06	1.127767446147301483e+10
2.771764965980353124e-06	1.078123487602332497e+10
2.855173314609554734e-06	1.030671343844691277e+10
2.941053979411646706e-06	9.853139794688613892e+09
3.029478969675733886e-06	9.419586658709814072e+09
3.120522349376869619e-06	9.005167896075426102e+09
3.214260294387125018e-06	8.609036694135005951e+09
3.310771151233301023e-06	8.230383811930754662e+09
3.410135497441314422e-06	7.868435910607070923e+09
3.512436203508635412e-06	7.522453955673106194e+09
3.617758496547235073e-06	7.191731692370657921e+09
3.726190025640105473e-06	6.875594188075159073e+09
3.837820928956158341e-06	6.573396439847648621e+09
3.952743902668659333e-06	6.284522044096362114e+09
4.071054271724234032e-06	6.008381925085049629e+09
4.192850062509940543e-06	5.744413121109856606e+09
4.318232077467517935e-06	5.492077623434920311e+09
4.447303971705146324e-06	5.250861267849330902e+09
4.580172331657760367e-06	5.020272675347670555e+09
4.716946755849061574e-06	4.799842239654785156e+09
4.857739937808705994e-06	4.589121160468510628e+09
5.002667751200407985e-06	4.387680519147282600e+09
5.151849337217210683e-06	4.195110395794499397e+09
5.305407194302055871e-06	4.011019025812541962e+09
5.463467270253252199e-06	3.835031993512261391e+09
5.626159056775246209e-06	3.666791462283213139e+09
5.793615686537564631e-06	3.505955438140851021e+09
5.965974032805152211e-06	3.352197067064060211e+09
6.143374811706077051e-06	3.205203962768631935e+09
6.325962687203037121e-06	3.064677564668248177e+09
6.513886378837383483e-06	2.930332524669480801e+09
6.707298772316106263e-06	2.801896120657525539e+09
6.906357033013056961e-06	2.679107696651061058e+09
7.111222722458724921e-06	2.561718127427369595e+09
7.322061917893124649e-06	2.449489307164906979e+09
7.539045334959699832e-06	2.342193660790346146e+09
7.762348453618575980e-06	2.239613677065271854e+09
7.992151647360246441e-06	2.141541506393746614e+09
8.228640315802717984e-06	2.047778313761460543e+09
8.472005020756155999e-06	1.958134312979022503e+09
8.722441625842568478e-06	1.872427935682076931e+09
8.980151439758383048e-06	1.790485680050649643e+09
9.245341363271710841e-06	1.712141711316913843e+09
9.518224040046235874e-06	1.637237521937718868e+09
9.799018011387924061e-06	1.565621607029653788e+09
1.008794787501094931e-05	1.497149185379952431e+09
1.038524444792316605e-05	1.431681776788172483e+09
1.069114493353285514e-05	1.369087081854798555e+09
1.100589309308075547e-05	1.309238697268002033e+09
1.132973942150489335e-05	1.252015715140255451e+09
1.166294132784646232e-05	1.197302618449567080e+09
1.200576332030929856e-05	1.144988890874850273e+09
1.235847719608679822e-05	1.094969062109359503e+09
1.272136223607337729e-05	1.047142151940966487e+09
1.309470540458018864e-05	1.001411728644448876e+09
1.347880155417700950e-05	9.576855877579816580e+08
1.387395363578634146e-05	9.158755988809511662e+08
1.428047291415665589e-05	8.758975139423352480e+08
1.469867918884656779e-05	8.376708018068255186e+08
1.512890102085345769e-05	8.011184821497299671e+08
1.557147596502347453e-05	7.661669684635255337e+08
1.602675080838320690e-05	7.327459184432686567e+08
1.649508181453562228e-05	7.007880902580934763e+08
1.697683497426770376e-05	6.702292055130320787e+08
1.747238626251827927e-05	6.410078181125782728e+08
1.798212190186007121e-05	6.130651896562198400e+08
1.850643863265193068e-05	5.863451689983444214e+08
1.904574399002138265e-05	5.607940790055001974e+08
1.960045658784116297e-05	5.363606058085163832e+08
2.017100640986622961e-05	5.129956959340686202e+08
2.075783510820349077e-05	4.906524552181038857e+08
2.136139630928698683e-05	4.692860544249081016e+08
2.198215592753908321e-05	4.488536375596439838e+08
2.262059248689816997e-05	4.293142345754405260e+08
2.327719745040070625e-05	4.106286787791603804e+08
2.395247555800752786e-05	3.927595265578904152e+08
2.464694517286860882e-05	3.756709817509834766e+08
2.536113863622660686e-05	3.593288228760811090e+08
2.609560263116021076e-05	3.437003333908286691e+08
2.685089855537753340e-05	3.287542358713629842e+08
2.762760290326908926e-05	3.144606278510035872e+08
2.842630765743874548e-05	3.007909216414505839e+08
2.924762068993371503e-05	2.877177862200466394e+08
3.009216617339834738e-05	2.752150918483028412e+08
3.096058500238514513e-05	2.632578570046871603e+08
3.185353522505560879e-05	2.518221979309841096e+08
3.277169248551520752e-05	2.408852801067942679e+08
3.371575047702522190e-05	2.304252720848781765e+08
3.468642140634495882e-05	2.204213013477980494e+08
3.568443646945954599e-05	2.108534118647016287e+08
3.671054633895553409e-05	2.017025239485133290e+08
3.776552166331186721e-05	1.929503954600426257e+08
3.885015357837793621e-05	1.845795851510169804e+08
3.996525423131969958e-05	1.765734171158435345e+08
4.111165731731532394e-05	1.689159469989198744e+08
4.229021862929303795e-05	1.615919311095436811e+08
4.350181662100611644e-05	1.545867929825041592e+08
4.474735298374786632e-05	1.478865965503713787e+08
4.602775323701557153e-05	1.414780165990177393e+08
4.734396733343653471e-05	1.353483123204244077e+08
4.869697027828094111e-05	1.294853014816412032e+08
5.008776276388533474e-05	1.238773359105153233e+08
5.151737181932446305e-05	1.185132779823928177e+08
5.298685147567115021e-05	1.133824781682470143e+08
5.449728344719247190e-05	1.084747536007958651e+08
5.604977782883855455e-05	1.037803675180600435e+08
5.764547381038348680e-05	9.929000968597418070e+07
5.928554040759212841e-05	9.499477764523361623e+07
6.097117721078473883e-05	9.088615878578756750e+07
6.270361515118759671e-05	8.695601322290264070e+07
6.448411728545935416e-05	8.319655741001500189e+07
6.631397959879329099e-05	7.960034851171493530e+07
6.819453182700355609e-05	7.616026943046964705e+07
7.012713829800807015e-05	7.286951446228235960e+07
7.211319879313640398e-05	6.972157570221677423e+07
7.415414942868854770e-05	6.671022991989777982e+07
7.625146355818901217e-05	6.382952605329138786e+07
7.840665269578212752e-05	6.107377331235916167e+07
8.062126746122688507e-05	5.843752969104951620e+07
8.289689854695666226e-05	5.591559114065364003e+07
8.523517770767688158e-05	5.350298103233736753e+07
8.763777877298845379e-05	5.119494025905401260e+07
9.010641868352381218e-05	4.898691767068631947e+07
9.264285855110260574e-05	4.687456093211570382e+07
9.524890474341547427e-05	4.485370784286896139e+07
9.792640999375774543e-05	4.292037797141160071e+07
1.006772745363442045e-04	4.107076471977706254e+07
1.035034472677423350e-04	3.930122768369927257e+07
1.064069269349799415e-04	3.760828537400848418e+07
1.093897633508805317e-04	3.598860826080428809e+07
1.124540586372028180e-04	3.443901210184266418e+07
1.156019684961617745e-04	3.295645160220159963e+07
1.188357035109241408e-04	3.153801431722453982e+07
1.221575304756808682e-04	3.018091483337545022e+07
1.255697737559054476e-04	2.888248921025569737e+07
1.290748166794297757e-04	2.764018966947697103e+07
1.326751029589622239e-04	2.645157950388110057e+07
1.363731381467025365e-04	2.531432821396460384e+07
1.401714911217055834e-04	2.422620687794707343e+07
1.440727956106649952e-04	2.318508368547056243e+07
1.480797517427975038e-04	2.218891970860361680e+07
1.521951276395152382e-04	2.123576483929729834e+07
1.564217610396006542e-04	2.032375389219932258e+07
1.607625609605850341e-04	1.945110290018275753e+07
1.652205093970752418e-04	1.861610557229134440e+07
1.697986630567548767e-04	1.781712988497032225e+07
1.745001551348218313e-04	1.705261484835107625e+07
1.793281971276267507e-04	1.632106739614503831e+07
1.842860806862830169e-04	1.562105942226989381e+07
1.893771795110544176e-04	1.495122493916256726e+07
1.946049512873056512e-04	1.431025737408699095e+07
1.999729396638524545e-04	1.369690696763010509e+07
2.054847762745245598e-04	1.310997829169359244e+07
2.111441828037977845e-04	1.254832788730845414e+07
2.169549730973486005e-04	1.201086199031644128e+07
2.229210553183956457e-04	1.149653436317121610e+07
2.290464341507298274e-04	1.100434422373234108e+07
2.353352130493088085e-04	1.053333426275655814e+07
2.417915965393528167e-04	1.008258874615754001e+07
2.484198925648474932e-04	9.651231702017536387e+06
2.552245148874096939e-04	9.238425192729871720e+06
2.622099855364643504e-04	8.843367647092586383e+06
2.693809373117051387e-04	8.465292285794585943e+06
2.767421163388236261e-04	8.103465597617781721e+06
2.842983846795005417e-04	7.757185897141123191e+06
2.920547229966874545e-04	7.425781929580715485e+06
3.000162332761878718e-04	7.108611554971022531e+06
3.081881416055998971e-04	6.805060474038798362e+06
3.165758010116681651e-04	6.514541016442891210e+06
3.251846943571241617e-04	6.236490986289335415e+06
3.340204372981052014e-04	5.970372549448326230e+06
3.430887813032467825e-04	5.715671172072480433e+06
3.523956167355906874e-04	5.471894612719740719e+06
3.619469759984154759e-04	5.238571947485463694e+06
3.717490367461653497e-04	5.015252643645093776e+06
3.818081251616307621e-04	4.801505675631085411e+06
3.921307193005673796e-04	4.596918674669319764e+06
4.027234525049537138e-04	4.401097117695299909e+06
4.135931168860897513e-04	4.213663553012903780e+06
4.247466668787908931e-04	4.034256858539086767e+06
4.361912228678916747e-04	3.862531529699841980e+06
4.479340748883458342e-04	3.698157004874809179e+06
4.599826864001866364e-04	3.540817013969638851e+06
4.723446981396464922e-04	3.390208958502225578e+06
4.850279320477397316e-04	3.246043317930886522e+06
4.980403952776426982e-04	3.108043082703036722e+06
5.113902842821964377e-04	2.975943209682697430e+06
5.250859889829064247e-04	2.849490103663797490e+06
5.391360970217988621e-04	2.728441123363550752e+06
5.535493980975280011e-04	2.612564101264966186e+06
5.683348883871351068e-04	2.501636893496907316e+06
5.835017750548800262e-04	2.395446943478662986e+06
5.990594808495856112e-04	2.293790866091215052e+06
6.150176487919293980e-04	2.196474051797314081e+06
6.313861469531724521e-04	2.103310283529308625e+06
6.481750733267863411e-04	2.014121376786618028e+06
6.653947607944871211e-04	1.928736827763753943e+06
6.830557821881820752e-04	1.846993484253026079e+06
7.011689554493569536e-04	1.768735224103604211e+06
7.197453488874495714e-04	1.693812653910570545e+06
7.387962865387634253e-04	1.622082814458080567e+06
7.583333536274831227e-04	1.553408905776145868e+06
7.783684021303971089e-04	1.487660017897052923e+06
7.989135564469067264e-04	1.424710877536519198e+06
8.199812191759468230e-04	1.364441603083133698e+06
8.415840770014416114e-04	1.306737472939453786e+06
8.637351066879284806e-04	1.251488701306509553e+06
8.864475811880271261e-04	1.198590225041037891e+06
9.097350758633794381e-04	1.147941499719147570e+06
9.336114748207851102e-04	1.099446304301192751e+06
9.580909773651914750e-04	1.053012554316079011e+06
9.831881045712536401e-04	1.008552123650391004e+06
1.008917705975180676e-03	9.659806723784895148e+05
1.035294966388588048e-03	9.252174846576623386e+05
1.062335412836107286e-03	8.861853115618082229e+05
1.090054921618471232e-03	8.488102214121069992e+05
1.118469725502873246e-03	8.130214570231958060e+05
1.147596421042336055e-03	7.787512985240435228e+05
1.177451976025879190e-03	7.459349323063188931e+05
1.208053737061271556e-03	7.145103257062173216e+05
1.239419437292157197e-03	6.844181070806678617e+05
1.271567204251370948e-03	6.556014512041283306e+05
1.304515567852219905e-03	6.280059694982321234e+05
1.338283468519590102e-03	6.015796047759482171e+05
1.372890265462663011e-03	5.762725316118416376e+05
1.408355745091090846e-03	5.520370587888188893e+05
1.444700129576450632e-03	5.288275387206212617e+05
1.481944085560815390e-03	5.066002789727047784e+05
1.520108733014296880e-03	4.853134578948407434e+05
1.559215654243366594e-03	4.649270444957949221e+05
1.599286903051838063e-03	4.454027209359412082e+05
1.640345014056334523e-03	4.267038092982288217e+05
1.682413012158091381e-03	4.087952009861834813e+05
1.725514422172941395e-03	3.916432887124437839e+05
1.769673278621324399e-03	3.752159026255590725e+05
1.814914135680162572e-03	3.594822481732960441e+05
1.861262077298456944e-03	3.444128470574512612e+05
1.908742727478402118e-03	3.299794806971632061e+05
1.957382260723893128e-03	3.161551356456607464e+05
2.007207412658228336e-03	3.029139541817071149e+05
2.058245490812822456e-03	2.902311799758214038e+05
2.110524385588748338e-03	2.780831156341318274e+05
2.164072581392901228e-03	2.664470744196117739e+05
2.218919167950597626e-03	2.553013381771308486e+05
2.275093851796335023e-03	2.446251150752559479e+05
2.332626967944552605e-03	2.343985002211816900e+05
2.391549491742087346e-03	2.246024374017922382e+05
2.451893050904090966e-03	2.152186829341072589e+05
2.513689937735119530e-03	2.062297707621209556e+05
2.576973121537103496e-03	1.976189789169541618e+05
2.641776261205902587e-03	1.893702980236076401e+05
2.708133718018046650e-03	1.814684005148440483e+05
2.776080568609395460e-03	1.738986114836091001e+05
2.845652618147268779e-03	1.666468807383538515e+05
2.916886413697669482e-03	1.596997560816626647e+05
2.989819257789154937e-03	1.530443577442130772e+05
3.064489222174912250e-03	1.466683538214620785e+05
3.140935161794557867e-03	1.405599369093626156e+05
3.219196728937071851e-03	1.347078016171171330e+05
3.299314387606417254e-03	1.291011231834003556e+05
3.381329428091180752e-03	1.237295369758282177e+05
3.465283981739629253e-03	1.185831184371620038e+05
3.551221035941539914e-03	1.136523631529913982e+05
3.639184450026844084e-03	1.089281728076895815e+05
3.729218967925022107e-03	1.044018371559229417e+05
3.821370237753331060e-03	1.000650110682635277e+05
3.915684825066668637e-03	9.590970413796420326e+04
4.012210229515839922e-03	9.192826709539434523e+04
4.110994901095596336e-03	8.811337413566101168e+04
4.212088256607540888e-03	8.445801016790932044e+04
4.315540696338861226e-03	8.095545737013657345e+04
4.421403620957799034e-03	7.759928267021391366e+04
4.529729448626704930e-03	7.438332555614145531e+04
4.640571632333404840e-03	7.130168644250201760e+04
4.753984677441674966e-03	6.834871559001790592e+04
4.870024159461424675e-03	6.551900236280335230e+04
4.988746742039173662e-03	6.280736523182496603e+04
5.110210195169336000e-03	6.020884186016615422e+04
5.234473413626757748e-03	5.771867986106005264e+04
5.361596435620887176e-03	5.533232776057156298e+04
5.491640461671754535e-03	5.304542657621240505e+04
5.624667873708130011e-03	5.085380155022830877e+04
5.760742254387826028e-03	4.875345434671818657e+04
5.899928406640250582e-03	4.674055552245469880e+04
6.042292373431122285e-03	4.481143739242063748e+04
6.187901457749198780e-03	4.296258710848088958e+04
6.336824242814797364e-03	4.119064011753846717e+04
6.489130612509666322e-03	3.949237384771488723e+04
6.644891772027873914e-03	3.786470167424144165e+04
6.804180268747098310e-03	3.630466716571380675e+04
6.967070013319660166e-03	3.480943855206749140e+04
7.133636300982511974e-03	3.337630341635012155e+04
7.303955833085339425e-03	3.200266366632654172e+04
7.478106738835765994e-03	3.068603064865124179e+04
7.656168597260439544e-03	2.942402056392161467e+04
7.838222459380908905e-03	2.821434994425611512e+04
8.024350870602815072e-03	2.705483147614806148e+04
