# Data associated with arXiv:2110.09653
# 
# Scale-free gravitational potential, Phi(r), of a einasto0-20 dark matter distribution (see Eq. 12 and the surrounding discussion)
# 
# Published: 3/29/22, Jack Runburg, contact: runburg@hawaii.edu
# 
# 
# -----------------------------------------------------------------
# 
# 	 tilde r 		 | 		 tilde Phi
# 
# -----------------------------------------------------------------
1.000000000000000082e-05	1.572744509700548483e-07
1.016902569856036418e-05	1.621764074535535886e-07
1.034090836579813217e-05	1.672295782447392914e-07
1.051569629182590727e-05	1.724385732475936723e-07
1.069343858298338107e-05	1.778081410095084296e-07
1.087418517563349352e-05	1.833431728259227335e-07
1.105798685019213608e-05	1.890487069642732457e-07
1.124489524539464294e-05	1.949299330106277035e-07
1.143496287280373749e-05	2.009921963425087046e-07
1.162824313156251011e-05	2.072410027314753955e-07
1.182479032339672186e-05	2.136820230791490594e-07
1.202465966787094358e-05	2.203210982904762539e-07
1.222790731790219642e-05	2.271642442880970218e-07
1.243459037553620304e-05	2.342176571718382223e-07
1.264476690798990365e-05	2.414877185274114779e-07
1.285849596396550032e-05	2.489810008885591324e-07
1.307583759024001738e-05	2.567042733569629290e-07
1.329685284853523648e-05	2.646645073843745315e-07
1.352160383267306994e-05	2.728688827215557647e-07
1.375015368602047702e-05	2.813247935387039578e-07
1.398256661922970337e-05	2.900398547222237756e-07
1.421890792827791775e-05	2.990219083527745843e-07
1.445924401281218556e-05	3.082790303697231914e-07
1.470364239480425140e-05	3.178195374272139687e-07
1.495217173752060936e-05	3.276519939472447559e-07
1.520490186481353606e-05	3.377852193752889890e-07
1.546190378073772831e-05	3.482282956441110090e-07
1.572324968949899453e-05	3.589905748516434847e-07
1.598901301573965207e-05	3.700816871588791024e-07
1.625926842516730133e-05	3.815115489139694448e-07
1.653409184553174079e-05	3.932903710088083675e-07
1.681356048795696318e-05	4.054286674746356333e-07
1.709775286863338809e-05	4.179372643232923824e-07
1.738674883087671066e-05	4.308273086409886121e-07
1.768062956756000055e-05	4.441102779416344274e-07
1.797947764392438726e-05	4.577979897869159955e-07
1.828337702077590442e-05	4.719026116805850759e-07
1.859241307807381921e-05	4.864366712445266075e-07
1.890667263891824960e-05	5.014130666844804881e-07
1.922624399394281931e-05	5.168450775534060196e-07
1.955121692611963820e-05	5.327463758207563790e-07
1.988168273598394005e-05	5.491310372561533486e-07
2.021773426728446277e-05	5.660135531361100370e-07
2.055946593306806188e-05	5.834088422827953853e-07
2.090697374220454717e-05	6.013322634439444751e-07
2.126035532636048084e-05	6.197996280233926199e-07
2.161970996742848953e-05	6.388272131718487561e-07
2.198513862542019826e-05	6.584317752478515618e-07
2.235674396683105304e-05	6.786305636591197071e-07
2.273463039348393747e-05	6.994413350946998126e-07
2.311890407186101566e-05	7.208823681587207867e-07
2.350967296293065580e-05	7.429724784167018065e-07
2.390704685247916156e-05	7.657310338658044184e-07
2.431113738195477895e-05	7.891779708405846158e-07
2.472205807983296721e-05	8.133338103661852021e-07
2.513992439351238667e-05	8.382196749712446971e-07
2.556485372174920653e-05	8.638573059730038183e-07
2.599696544764047972e-05	8.902690812475988929e-07
2.643638097216418787e-05	9.174780334986757640e-07
2.688322374828698802e-05	9.455078690380010213e-07
2.733761931564792142e-05	9.743829870919292830e-07
2.779969533582839453e-05	1.004128499648062989e-06
2.826958162821882354e-05	1.034770251856816606e-06
2.874741020649071774e-05	1.066334843002863963e-06
2.923331531568612113e-05	1.098849648062036339e-06
2.972743346993304866e-05	1.132342839859415737e-06
3.022990349079926684e-05	1.166843411845015550e-06
3.074086654629380722e-05	1.202381201503657238e-06
3.126046619052763072e-05	1.238986914416208361e-06
3.178884840404535552e-05	1.276692148989817386e-06
3.232616163483768439e-05	1.315529421875065760e-06
3.287255684004812447e-05	1.355532194088689306e-06
3.342818752838356790e-05	1.396734897860700211e-06
3.399320980324275641e-05	1.439172964225542104e-06
3.456778240657304527e-05	1.482882851377133128e-06
3.515206676346841592e-05	1.527902073808341136e-06
3.574622702752206616e-05	1.574269232255976845e-06
3.635043012694450139e-05	1.622024044472733608e-06
3.696484581146223093e-05	1.671207376848363482e-06
3.758964670000808795e-05	1.721861276902608166e-06
3.822500832921870388e-05	1.774029006673330265e-06
3.887110920275097572e-05	1.827755077023568360e-06
3.952813084143210176e-05	1.883085282892055072e-06
4.019625783425803943e-05	1.940066739512366428e-06
4.087567789025284005e-05	1.998747919626295204e-06
4.156658189120576708e-05	2.059178691718043815e-06
4.226916394529853092e-05	2.121410359296105904e-06
4.298362144164019741e-05	2.185495701250808625e-06
4.371015510572303796e-05	2.251489013315810536e-06
4.444896905581571312e-05	2.319446150662811001e-06
4.520027086031053377e-05	2.389424571659486541e-06
4.596427159603870473e-05	2.461483382821134202e-06
4.674118590757267352e-05	2.535683384987739094e-06
4.753123206752940771e-05	2.612087120758452168e-06
4.833463203789430644e-05	2.690758923216806023e-06
4.915161153238073493e-05	2.771764965980353124e-06
4.998240007984356624e-05	2.855173314609554734e-06
5.082723108876559525e-05	2.941053979411646706e-06
5.168634191283236288e-05	3.029478969675733886e-06
5.255997391761710167e-05	3.120522349376869619e-06
5.344837254839108326e-05	3.214260294387125018e-06
5.435178739908172257e-05	3.310771151233301023e-06
5.527047228239525742e-05	3.410135497441314422e-06
5.620468530112457639e-05	3.512436203508635412e-06
5.715468892066349253e-05	3.617758496547235073e-06
5.812075004274504757e-05	3.726190025640105473e-06
5.910314008042789533e-05	3.837820928956158341e-06
6.010213503434843707e-05	3.952743902668659333e-06
6.111801557026345553e-05	4.071054271724234032e-06
6.215106709790228898e-05	4.192850062509940543e-06
6.320157985115178797e-05	4.318232077467517935e-06
6.426984896959787321e-05	4.447303971705146324e-06
6.535617458144342038e-05	4.580172331657760367e-06
6.646086188782971240e-05	4.716946755849061574e-06
6.758422124858115099e-05	4.857739937808705994e-06
6.872656826940111863e-05	5.002667751200407985e-06
6.988822389054047174e-05	5.151849337217210683e-06
7.106951447696465861e-05	5.305407194302055871e-06
7.227077191004629639e-05	5.463467270253252199e-06
7.349233368080552791e-05	5.626159056775246209e-06
7.473454298472863809e-05	5.793615686537564631e-06
7.599774881818697982e-05	5.965974032805152211e-06
7.728230607648789517e-05	6.143374811706077051e-06
7.858857565358148443e-05	6.325962687203037121e-06
7.991692454345255051e-05	6.513886378837383483e-06
8.126772594322802224e-05	6.707298772316106263e-06
8.264135935802465773e-05	6.906357033013056961e-06
8.403821070757165439e-05	7.111222722458724921e-06
8.545867243463269578e-05	7.322061917893124649e-06
8.690314361526321394e-05	7.539045334959699832e-06
8.837203007092955202e-05	7.762348453618575980e-06
8.986574448252320402e-05	7.992151647360246441e-06
9.138470650630395851e-05	8.228640315802717984e-06
9.292934289180014931e-05	8.472005020756155999e-06
9.450008760170456993e-05	8.722441625842568478e-06
9.609738193379394305e-05	8.980151439758383048e-06
9.772167464491231779e-05	9.245341363271710841e-06
9.937342207704681467e-05	9.518224040046235874e-06
1.010530882855375953e-04	9.799018011387924061e-06
1.027611451694522251e-04	1.008794787501094931e-05
1.044980726041651943e-04	1.038524444792316605e-05
1.062643585761784858e-04	1.069114493353285514e-05
1.080604993202192510e-04	1.100589309308075547e-05
1.098869994586575572e-04	1.132973942150489335e-05
1.117443721432778697e-04	1.166294132784646232e-05
1.136331391994486811e-04	1.200576332030929856e-05
1.155538312727281931e-04	1.235847719608679822e-05
1.175069879779481330e-04	1.272136223607337729e-05
1.194931580508180820e-04	1.309470540458018864e-05
1.215128995020904455e-04	1.347880155417700950e-05
1.235667797743341897e-04	1.387395363578634146e-05
1.256553759013554958e-04	1.428047291415665589e-05
1.277792746703147969e-04	1.469867918884656779e-05
1.299390727865835948e-04	1.512890102085345769e-05
1.321353770413874452e-04	1.557147596502347453e-05
1.343688044822834680e-04	1.602675080838320690e-05
1.366399825865173903e-04	1.649508181453562228e-05
1.389495494373137348e-04	1.697683497426770376e-05
1.412981539031428761e-04	1.747238626251827927e-05
1.436864558200198782e-04	1.798212190186007121e-05
1.461151261768842277e-04	1.850643863265193068e-05
1.485848473041125864e-04	1.904574399002138265e-05
1.510963130652191798e-04	1.960045658784116297e-05
1.536502290517936125e-04	2.017100640986622961e-05
1.562473127817378576e-04	2.075783510820349077e-05
1.588882939008491742e-04	2.136139630928698683e-05
1.615739143878149021e-04	2.198215592753908321e-05
1.643049287626683534e-04	2.262059248689816997e-05
1.670821042987704773e-04	2.327719745040070625e-05
1.699062212383743503e-04	2.395247555800752786e-05
1.727780730118311508e-04	2.464694517286860882e-05
1.756984664605053779e-04	2.536113863622660686e-05
1.786682220634525510e-04	2.609560263116021076e-05
1.816881741679340619e-04	2.685089855537753340e-05
1.847591712238235014e-04	2.762760290326908926e-05
1.878820760219775598e-04	2.842630765743874548e-05
1.910577659366365815e-04	2.924762068993371503e-05
1.942871331719188508e-04	3.009216617339834738e-05
1.975710850124866975e-04	3.096058500238514513e-05
2.009105440784431595e-04	3.185353522505560879e-05
2.043064485845435532e-04	3.277169248551520752e-05
2.077597526037827484e-04	3.371575047702522190e-05
2.112714263354412516e-04	3.468642140634495882e-05
2.148424563776607336e-04	3.568443646945954599e-05
2.184738460046266035e-04	3.671054633895553409e-05
2.221666154484372088e-04	3.776552166331186721e-05
2.259218021857336319e-04	3.885015357837793621e-05
2.297404612291798821e-04	3.996525423131969958e-05
2.336236654238643619e-04	4.111165731731532394e-05
2.375725057487147664e-04	4.229021862929303795e-05
2.415880916230062926e-04	4.350181662100611644e-05
2.456715512180506823e-04	4.474735298374786632e-05
2.498240317741551374e-04	4.602775323701557153e-05
2.540466999229345113e-04	4.734396733343653471e-05
2.583407420150777146e-04	4.869697027828094111e-05
2.627073644536481322e-04	5.008776276388533474e-05
2.671477940330213769e-04	5.151737181932446305e-05
2.716632782835508839e-04	5.298685147567115021e-05
2.762550858220584886e-04	5.449728344719247190e-05
2.809245067082517420e-04	5.604977782883855455e-05
2.856728528071605542e-04	5.764547381038348680e-05
2.905014581577071149e-04	5.928554040759212841e-05
2.954116793474984839e-04	6.097117721078473883e-05
3.004048958939589458e-04	6.270361515118759671e-05
3.054825106319022541e-04	6.448411728545935416e-05
3.106459501076553839e-04	6.631397959879329099e-05
3.158966649798455200e-04	6.819453182700355609e-05
3.212361304269563162e-04	7.012713829800807015e-05
3.266658465617811426e-04	7.211319879313640398e-05
3.321873388528732334e-04	7.415414942868854770e-05
3.378021585531251671e-04	7.625146355818901217e-05
3.435118831355896260e-04	7.840665269578212752e-05
3.493181167366675791e-04	8.062126746122688507e-05
3.552224906067888996e-04	8.289689854695666226e-05
3.612266635687054364e-04	8.523517770767688158e-05
3.673323224835388411e-04	8.763777877298845379e-05
3.735411827246973185e-04	9.010641868352381218e-05
3.798549886598084251e-04	9.264285855110260574e-05
3.862755141407951480e-04	9.524890474341547427e-05
3.928045630022363724e-04	9.792640999375774543e-05
3.994439695681523583e-04	1.006772745363442045e-04
4.061955991673505371e-04	1.035034472677423350e-04
4.130613486574917070e-04	1.064069269349799415e-04
4.200431469580040238e-04	1.093897633508805317e-04
4.271429555920115370e-04	1.124540586372028180e-04
4.343627692374198417e-04	1.156019684961617745e-04
4.417046162873167637e-04	1.188357035109241408e-04
4.491705594198478857e-04	1.221575304756808682e-04
4.567626961777168084e-04	1.255697737559054476e-04
4.644831595574927248e-04	1.290748166794297757e-04
4.723341186088662533e-04	1.326751029589622239e-04
4.803177790440425624e-04	1.363731381467025365e-04
4.884363838574312710e-04	1.401714911217055834e-04
4.966922139558113680e-04	1.440727956106649952e-04
5.050875887991499369e-04	1.480797517427975038e-04
5.136248670522445235e-04	1.521951276395152382e-04
5.223064472473935762e-04	1.564217610396006542e-04
5.311347684582509721e-04	1.607625609605850341e-04
5.401123109850867847e-04	1.652205093970752418e-04
5.492415970516181150e-04	1.697986630567548767e-04
5.585251915136241153e-04	1.745001551348218313e-04
5.679657025795404723e-04	1.793281971276267507e-04
5.775657825432239500e-04	1.842860806862830169e-04
5.873281285291183634e-04	1.893771795110544176e-04
5.972554832499969713e-04	1.946049512873056512e-04
6.073506357775315233e-04	1.999729396638524545e-04
6.176164223258701069e-04	2.054847762745245598e-04
6.280557270484683893e-04	2.111441828037977845e-04
6.386714828483902292e-04	2.169549730973486005e-04
6.494666722022935214e-04	2.229210553183956457e-04
6.604443279983617009e-04	2.290464341507298274e-04
6.716075343883770371e-04	2.353352130493088085e-04
6.829594276542177208e-04	2.417915965393528167e-04
6.945031970889825731e-04	2.484198925648474932e-04
7.062420858930204982e-04	2.552245148874096939e-04
7.181793920851009278e-04	2.622099855364643504e-04
7.303184694289851413e-04	2.693809373117051387e-04
7.426627283756636558e-04	2.767421163388236261e-04
7.552156370215079703e-04	2.842983846795005417e-04
7.679807220826359018e-04	2.920547229966874545e-04
7.809615698857278474e-04	3.000162332761878718e-04
7.941618273756021005e-04	3.081881416055998971e-04
8.075852031398165869e-04	3.165758010116681651e-04
8.212354684505887787e-04	3.251846943571241617e-04
8.351164583243314002e-04	3.340204372981052014e-04
8.492320725990840828e-04	3.430887813032467825e-04
8.635862770301777234e-04	3.523956167355906874e-04
8.781831044043956558e-04	3.619469759984154759e-04
8.930266556729828109e-04	3.717490367461653497e-04
9.081211011037989590e-04	3.818081251616307621e-04
9.234706814529467173e-04	3.921307193005673796e-04
9.390797091562086895e-04	4.027234525049537138e-04
9.549525695406079406e-04	4.135931168860897513e-04
9.710937220564705170e-04	4.247466668787908931e-04
9.875077015302894702e-04	4.361912228678916747e-04
1.004199119438780371e-03	4.479340748883458342e-04
1.021172665204465608e-03	4.599826864001866364e-04
1.038433107513160114e-03	4.723446981396464922e-04
1.055985295653722377e-03	4.850279320477397316e-04
1.073834160880457900e-03	4.980403952776426982e-04
1.091984717798539194e-03	5.113902842821964377e-04
1.110442065772854507e-03	5.250859889829064247e-04
1.129211390360662605e-03	5.391360970217988621e-04
1.148297964768467102e-03	5.535493980975280011e-04
1.167707151333511727e-03	5.683348883871351068e-04
1.187444403030319794e-03	5.835017750548800262e-04
1.207515265002700490e-03	5.990594808495856112e-04
1.227925376121640280e-03	6.150176487919293980e-04
1.248680470569537605e-03	6.313861469531724521e-04
1.269786379451208914e-03	6.481750733267863411e-04
1.291249032432127903e-03	6.653947607944871211e-04
1.313074459404352896e-03	6.830557821881820752e-04
1.335268792180613557e-03	7.011689554493569536e-04
1.357838266217031810e-03	7.197453488874495714e-04
1.380789222364966172e-03	7.387962865387634253e-04
1.404128108652453718e-03	7.583333536274831227e-04
1.427861482095777682e-03	7.783684021303971089e-04
1.451996010541646868e-03	7.989135564469067264e-04
1.476538474540514635e-03	8.199812191759468230e-04
1.501495769251562883e-03	8.415840770014416114e-04
1.526874906379880551e-03	8.637351066879284806e-04
1.552683016146397385e-03	8.864475811880271261e-04
1.578927349291094897e-03	9.097350758633794381e-04
1.605615279110095620e-03	9.336114748207851102e-04
1.632754303527175332e-03	9.580909773651914750e-04
1.660352047200289172e-03	9.831881045712536401e-04
1.688416263663707062e-03	1.008917705975180676e-03
1.716954837506350865e-03	1.035294966388588048e-03
1.745975786586963620e-03	1.062335412836107286e-03
1.775487264286699802e-03	1.090054921618471232e-03
1.805497561799810540e-03	1.118469725502873246e-03
1.836015110463037458e-03	1.147596421042336055e-03
1.867048484124379315e-03	1.177451976025879190e-03
1.898606401551900620e-03	1.208053737061271556e-03
1.930697728883249645e-03	1.239419437292157197e-03
1.963331482116591892e-03	1.271567204251370948e-03
1.996516829643624896e-03	1.304515567852219905e-03
2.030263094825430960e-03	1.338283468519590102e-03
2.064579758611852570e-03	1.372890265462663011e-03
2.099476462205150749e-03	1.408355745091090846e-03
2.134963009768679927e-03	1.444700129576450632e-03
2.171049371181348660e-03	1.481944085560815390e-03
2.207745684838647703e-03	1.520108733014296880e-03
2.245062260500998302e-03	1.559215654243366594e-03
2.283009582190270292e-03	1.599286903051838063e-03
2.321598311135244109e-03	1.640345014056334523e-03
2.360839288766866315e-03	1.682413012158091381e-03
2.400743539764126078e-03	1.725514422172941395e-03
2.441322275151419988e-03	1.769673278621324399e-03
2.482586895448264750e-03	1.814914135680162572e-03
2.524548993872262424e-03	1.861262077298456944e-03
2.567220359596177753e-03	1.908742727478402118e-03
2.610612981060093842e-03	1.957382260723893128e-03
2.654739049339540410e-03	2.007207412658228336e-03
2.699610961570552640e-03	2.058245490812822456e-03
2.745241324432623389e-03	2.110524385588748338e-03
2.791642957690524101e-03	2.164072581392901228e-03
2.838828897796003177e-03	2.218919167950597626e-03
2.886812401550338004e-03	2.275093851796335023e-03
2.935606949828818354e-03	2.332626967944552605e-03
2.985226251368169013e-03	2.391549491742087346e-03
3.035684246617996723e-03	2.451893050904090966e-03
3.086995111657330013e-03	2.513689937735119530e-03
3.139173262177360861e-03	2.576973121537103496e-03
3.192233357531519197e-03	2.641776261205902587e-03
3.246190304853968818e-03	2.708133718018046650e-03
3.301059263247754609e-03	2.776080568609395460e-03
3.356855648043719550e-03	2.845652618147268779e-03
3.413595135131412741e-03	2.916886413697669482e-03
3.471293665363201029e-03	2.989819257789154937e-03
3.529967449032819348e-03	3.064489222174912250e-03
3.589632970429635240e-03	3.140935161794557867e-03
3.650306992469857896e-03	3.219196728937071851e-03
3.712006561406061729e-03	3.299314387606417254e-03
3.774749011616297320e-03	3.381329428091180752e-03
3.838551970474150202e-03	3.465283981739629253e-03
3.903433363301120080e-03	3.551221035941539914e-03
3.969411418402700453e-03	3.639184450026844084e-03
4.036504672189604979e-03	3.729218967925022107e-03
4.104731974385511864e-03	3.821370237753331060e-03
4.174112493322873658e-03	3.915684825066668637e-03
4.244665721328222743e-03	4.012210229515839922e-03
4.316411480198500787e-03	4.110994901095596336e-03
4.389369926769958255e-03	4.212088256607540888e-03
4.463561558581177410e-03	4.315540696338861226e-03
4.539007219631814756e-03	4.421403620957799034e-03
4.615728106238700494e-03	4.529729448626704930e-03
4.693745772990876204e-03	4.640571632333404840e-03
4.773082138805334954e-03	4.753984677441674966e-03
4.853759493085097083e-03	4.870024159461424675e-03
4.935800501981372872e-03	4.988746742039173662e-03
5.019228214761578891e-03	5.110210195169336000e-03
5.104066070284974874e-03	5.234473413626757748e-03
5.190337903587798063e-03	5.361596435620887176e-03
5.278067952579629761e-03	5.491640461671754535e-03
5.367280864853020243e-03	5.624667873708130011e-03
5.458001704608171807e-03	5.760742254387826028e-03
5.550255959694683563e-03	5.899928406640250582e-03
5.644069548772311269e-03	6.042292373431122285e-03
5.739468828592763153e-03	6.187901457749198780e-03
5.836480601404602127e-03	6.336824242814797364e-03
5.935132122483251921e-03	6.489130612509666322e-03
6.035451107788337120e-03	6.644891772027873914e-03
6.137465741750428375e-03	6.804180268747098310e-03
6.241204685189401941e-03	6.967070013319660166e-03
6.346697083366644419e-03	7.133636300982511974e-03
6.453972574173352621e-03	7.303955833085339425e-03
6.563061296457267831e-03	7.478106738835765994e-03
6.673993898490092683e-03	7.656168597260439544e-03
6.786801546578089504e-03	7.838222459380908905e-03
6.901515933818189001e-03	8.024350870602815072e-03
