# Data associated with arXiv:2110.09653
# 
# Scale-free velocity distribution, f(E), of a einasto0-16 dark matter distribution (see Eq. 13 and the surrounding discussion)
# 
# Published: 3/29/22, Jack Runburg, contact: runburg@hawaii.edu
# 
# 
# -----------------------------------------------------------------
# 
# 	 tilde E 		 | 		 tilde f
# 
# -----------------------------------------------------------------
7.940901977098515795e-07	5.571198219182478027e+11
8.173891094972206084e-07	5.360850096430228271e+11
8.413613955698453751e-07	5.149924361928358154e+11
8.660261861842405335e-07	4.939478272470591431e+11
8.914031444509273310e-07	4.732843246878585815e+11
9.175124808392103446e-07	4.526554872899347534e+11
9.443749680662549707e-07	4.326131853497684326e+11
9.720119563802173485e-07	4.134608235436411743e+11
1.000445389247616309e-06	3.951587806083413696e+11
1.029697819455215297e-06	3.776692036623883667e+11
1.059792425637032672e-06	3.609559291133125610e+11
1.090753029237381380e-06	3.449844143471499634e+11
1.122604111920963721e-06	3.297216291905004272e+11
1.155370833441531335e-06	3.151360596899430542e+11
1.189079049980663084e-06	3.011975759049742432e+11
1.223755332968734008e-06	2.878773735939909668e+11
1.259426988400232413e-06	2.751479761809193115e+11
1.296122076656000338e-06	2.629830904012634583e+11
1.333869432845304494e-06	2.513576135334979248e+11
1.372698687680783466e-06	2.402475720656386108e+11
1.412640288899898459e-06	2.296300501435105286e+11
1.453725523246547038e-06	2.194831441512960205e+11
1.495986539027128701e-06	2.097859411307403564e+11
1.539456369255433220e-06	2.005184552887176208e+11
1.584168955401224417e-06	1.916615912856154785e+11
1.630159171757774406e-06	1.831971045867584229e+11
1.677462850443766440e-06	1.751075633918889465e+11
1.726116807055666753e-06	1.673763123583460999e+11
1.776158866986704558e-06	1.599874379281009216e+11
1.827627892429344316e-06	1.529257352068186340e+11
1.880563810078161715e-06	1.461766763378814087e+11
1.935007639550832698e-06	1.397263803086942139e+11
1.991001522545008834e-06	1.335615839683277588e+11
2.048588752749486544e-06	1.276696146144236755e+11
2.107813806528556885e-06	1.220383635287589569e+11
2.168722374398579548e-06	1.166562607936622620e+11
2.231361393316717863e-06	1.115122514866160278e+11
2.295779079801751124e-06	1.065957722970898895e+11
2.362024963907853752e-06	1.018967299692871246e+11
2.430149924072260038e-06	9.740548017690145874e+10
2.500206222858536210e-06	9.311280751780320740e+10
2.572247543617671568e-06	8.900990642220158386e+10
2.646329028089435060e-06	8.508836281985246277e+10
2.722507314967460957e-06	8.134013676428193665e+10
2.800840579451511192e-06	7.775754565606578064e+10
2.881388573811480017e-06	7.433324845989915466e+10
2.964212668987778200e-06	7.106023032971818542e+10
3.049375897253619556e-06	6.793178820648026276e+10
3.136942995965339510e-06	6.494151681117084503e+10
3.226980452427142205e-06	6.208329545841028595e+10
3.319556549897836907e-06	5.935127536308171082e+10
3.414741414767126596e-06	5.673986751690137482e+10
3.512607064930307135e-06	5.424373111302688599e+10
3.613227459390316339e-06	5.185776251499816895e+10
3.716678549117078518e-06	4.957708469516645813e+10
3.823038329194864257e-06	4.739703712810450745e+10
3.932386892288587644e-06	4.531316618557637024e+10
4.044806483461429371e-06	4.332121589076669312e+10
4.160381556376083073e-06	4.141711911398244476e+10
4.279198830913492668e-06	3.959698925974512482e+10
4.401347352242979379e-06	3.785711212222888947e+10
4.526918551378904808e-06	3.619393827098171997e+10
4.656006307259813047e-06	3.460407572714517975e+10
4.788707010386329408e-06	3.308428293075563431e+10
4.925119628055720494e-06	3.163146208171469879e+10
5.065345771230937323e-06	3.024265273540405655e+10
5.209489763083797900e-06	2.891502568184323502e+10
5.357658709251984257e-06	2.764587713325054550e+10
5.509962569850938440e-06	2.643262313774252701e+10
5.666514233282780406e-06	2.527279425709867096e+10
5.827429591884570670e-06	2.416403047321005249e+10
5.992827619460320857e-06	2.310407633845488358e+10
6.162830450740888516e-06	2.209077630807808304e+10
6.337563462818158353e-06	2.112207032235892868e+10
6.517155358599793449e-06	2.019598955781158066e+10
6.701738252332584086e-06	1.931065237548567963e+10
6.891447757243545810e-06	1.846426044577424240e+10
7.086423075348192786e-06	1.765509505203145599e+10
7.286807089477757117e-06	1.688151355942642784e+10
7.492746457576899451e-06	1.614194603947653008e+10
7.704391709325977006e-06	1.543489203257631683e+10
7.921897345141854641e-06	1.475891746946017265e+10
8.145421937613250406e-06	1.411265173082134628e+10
8.375128235427851280e-06	1.349478482808765602e+10
8.611183269848820193e-06	1.290406471001520538e+10
8.853758463800986153e-06	1.233929469704979515e+10
9.103029743626675553e-06	1.179933102880010223e+10
9.359177653574180173e-06	1.128308050990368843e+10
9.622387473081647370e-06	1.078949827188015938e+10
9.892849336921517419e-06	1.031758562547132683e+10
1.017075835827212376e-05	9.866388026047792435e+09
1.045631475478334803e-05	9.434993101101596832e+09
1.074972397770650829e-05	9.022528797060367584e+09
1.105119684415807429e-05	8.628161577015830994e+09
1.136094967259042910e-05	8.251094724797482491e+09
1.167920442154254215e-05	7.890566711514937401e+09
1.200618883174618876e-05	7.545849635339460373e+09
1.234213657166503157e-05	7.216247731676209450e+09
1.268728738654410457e-05	6.901095953455298424e+09
1.304188725105121165e-05	6.599758607150355339e+09
1.340618852559079050e-05	6.311628054643599510e+09
1.378045011637522662e-05	6.036123473745519638e+09
1.416493763933800887e-05	5.772689666385253906e+09
1.455992358797629636e-05	5.520795928945061684e+09
1.496568750521250576e-05	5.279934966921324730e+09
1.538251615936466585e-05	5.049621857701246262e+09
1.581070372431979352e-05	4.829393062162347794e+09
1.625055196400362586e-05	4.618805480039638519e+09
1.670237042124487269e-05	4.417435545841415405e+09
1.716647661113160844e-05	4.224878360095611095e+09
1.764319621896104226e-05	4.040746872273210049e+09
1.813286330288619777e-05	3.864671084570715904e+09
1.863582050136308076e-05	3.696297302968731403e+09
1.915241924550732449e-05	3.535287413484717846e+09
1.968301997646790258e-05	3.381318195247390270e+09
2.022799236793127638e-05	3.234080661346192360e+09
2.078771555386856455e-05	3.093279431446076870e+09
2.136257836164243552e-05	2.958632130890789032e+09
2.195297955059311731e-05	2.829868813707077503e+09
2.255932805622288176e-05	2.706731415959590912e+09
2.318204324010459446e-05	2.588973231690654278e+09
2.382155514563804804e-05	2.476358409128379822e+09
2.447830475978489791e-05	2.368661473246430397e+09
2.515274428091147127e-05	2.265666868281585217e+09
2.584533739287384304e-05	2.167168516873510838e+09
2.655655954548253358e-05	2.072969406834475517e+09
2.728689824148384754e-05	1.982881186462263584e+09
2.803685333020241200e-05	1.896723785231143475e+09
2.880693730798684947e-05	1.814325047621702909e+09
2.959767562560895100e-05	1.735520384240562439e+09
3.040960700276462762e-05	1.660152438241643667e+09
3.124328374983094923e-05	1.588070766529832125e+09
3.209927209703679530e-05	1.519131534686467171e+09
3.297815253120424200e-05	1.453197226311180592e+09
3.388052014022641621e-05	1.390136363683195353e+09
3.480698496544431473e-05	1.329823242838418961e+09
3.575817236209523743e-05	1.272137678191685677e+09
3.673472336800138072e-05	1.216964759470476389e+09
3.773729508067808744e-05	1.164194620991054773e+09
3.876656104303731964e-05	1.113722216457916021e+09
3.982321163787126478e-05	1.065447110052768707e+09
4.090795449130131133e-05	1.019273271643720746e+09
4.202151488538069941e-05	9.751088828344786167e+08
4.316463618004682271e-05	9.328661523462039232e+08
4.433808024461644752e-05	8.924611381655139923e+08
4.554262789902731307e-05	8.538135786006574631e+08
4.677907936502868257e-05	8.168467301049059629e+08
4.804825472752960837e-05	7.814872128527269363e+08
4.935099440631719102e-05	7.476648623501989841e+08
5.068815963835926713e-05	7.153125884817811251e+08
5.206063297091461436e-05	6.843662403094062805e+08
5.346931876567093567e-05	6.547644760187430382e+08
5.491514371414186319e-05	6.264486411314936876e+08
5.639905736455409259e-05	5.993626488870698214e+08
5.792203266046121440e-05	5.734528679907665253e+08
5.948506649132631054e-05	5.486680147923003435e+08
6.108918025531661115e-05	5.249590500978908539e+08
6.273542043456352185e-05	5.022790804861643314e+08
6.442485918313844528e-05	4.805832642257093787e+08
6.615859492800648897e-05	4.598287213839607835e+08
6.793775298322017912e-05	4.399744469497090578e+08
6.976348617762184560e-05	4.209812296641235352e+08
7.163697549632866955e-05	4.028115718342009187e+08
7.355943073627563180e-05	3.854296159273555279e+08
7.553209117610457037e-05	3.688010712856587172e+08
7.755622626068024998e-05	3.528931456720437407e+08
7.963313630053398472e-05	3.376744797606992722e+08
8.176415318652592188e-05	3.231150843159021139e+08
8.395064112003465951e-05	3.091862799291362762e+08
8.619399735898032209e-05	2.958606395557993650e+08
8.849565297999398153e-05	2.831119338428958654e+08
9.085707365705713917e-05	2.709150788361306787e+08
9.327976045692915681e-05	2.592460849945724308e+08
9.576525065170150429e-05	2.480820100703857541e+08
9.831511854880634733e-05	2.374009128125377595e+08
1.009309763388273014e-04	2.271818092572441399e+08
1.036144749614581581e-04	2.174046307113257349e+08
1.063673049899593469e-04	2.080501838286362290e+08
1.091911975344790544e-04	1.991001121511522830e+08
1.120879251645941850e-04	1.905368595496930480e+08
1.150593028514531143e-04	1.823436351786500514e+08
1.181071889298875352e-04	1.745043798934875429e+08
1.212334860808845913e-04	1.670037346907645762e+08
1.244401423348050423e-04	1.598270092276372313e+08
1.277291520957448356e-04	1.529601534584202170e+08
1.311025571874438272e-04	1.463897290981047451e+08
1.345624479211460461e-04	1.401028830858826339e+08
1.381109641858361159e-04	1.340873219788905829e+08
1.417502965612630716e-04	1.283312874401381612e+08
1.454826874541897117e-04	1.228235328966216892e+08
1.493104322582979948e-04	1.175533011626416296e+08
1.532358805381948139e-04	1.125103030726512969e+08
1.572614372379689865e-04	1.076846970618809164e+08
1.613895639147503542e-04	1.030670695306972861e+08
1.656227799977447591e-04	9.864841637574717402e+07
1.699636640732034624e-04	9.442012473691286147e+07
1.744148551958144336e-04	9.037395631029346585e+07
1.789790542269961661e-04	8.650203076421906054e+07
1.836590252005857024e-04	8.279681022767144442e+07
1.884575967164262185e-04	7.925108431660445035e+07
1.933776633623511629e-04	7.585795580295741558e+07
1.984221871650942060e-04	7.261082707772341371e+07
2.035941990706318348e-04	6.950338685152599216e+07
2.088968004545009951e-04	6.652959805052750558e+07
2.143331646626230643e-04	6.368368554776775092e+07
2.199065385831812185e-04	6.096012474378001690e+07
2.256202442501070899e-04	5.835363089460604638e+07
2.314776804787304178e-04	5.585914851794899255e+07
2.374823245341743151e-04	5.347184127545010298e+07
2.436377338330577408e-04	5.118708267852696031e+07
2.499475476791034414e-04	4.900044679258686304e+07
2.564154890332371543e-04	4.690769955393961072e+07
2.630453663187827616e-04	4.490479039747892320e+07
2.698410752623656150e-04	4.298784431009384990e+07
2.768066007711319988e-04	4.115315413558982313e+07
2.839460188469296949e-04	3.939717330705024302e+07
2.912634985380627129e-04	3.771650888034406304e+07
2.987633039292815484e-04	3.610791481328534335e+07
3.064497961706504374e-04	3.456828558641830087e+07
3.143274355459554090e-04	3.309465010911813378e+07
3.224007835813237719e-04	3.168416587180364504e+07
3.306745051947236049e-04	3.033411334916002676e+07
3.391533708870467928e-04	2.904189066396801546e+07
3.478422589754474317e-04	2.780500847243602574e+07
3.567461578696590934e-04	2.662108507980620116e+07
3.658701683919916674e-04	2.548784176483786479e+07
3.752195061417302937e-04	2.440309830197586492e+07
3.847995039046725593e-04	2.336476869840062037e+07
3.946156141085258202e-04	2.237085708887964860e+07
4.046734113249373602e-04	2.141945383392909914e+07
4.149785948188847769e-04	2.050873177819856256e+07
4.255369911462132931e-04	1.963694267177347094e+07
4.363545568000805602e-04	1.880241374167354777e+07
4.474373809070979289e-04	1.800354443044660613e+07
4.587916879739577019e-04	1.723880325473286957e+07
4.704238406853365360e-04	1.650672481677449867e+07
4.823403427539087445e-04	1.580590693628213368e+07
4.945478418232488252e-04	1.513500791557485797e+07
5.070531324244924179e-04	1.449274391476522200e+07
5.198631589875510632e-04	1.387788645101233199e+07
5.329850189077511586e-04	1.328925999814550392e+07
5.464259656687410569e-04	1.272573968107036501e+07
5.601934120225141511e-04	1.218624911432769895e+07
5.742949332274504366e-04	1.166975827473242767e+07
5.887382703452065076e-04	1.117528150217972137e+07
6.035313335973940992e-04	1.070187558726599067e+07
6.186822057828927435e-04	1.024863792763270624e+07
6.341991457567357866e-04	9.814704775705330074e+06
6.500905919714656395e-04	9.399249557081276551e+06
6.663651660818681278e-04	9.001481261682076380e+06
6.830316766140501206e-04	8.620642912898451090e+06
7.000991226997405927e-04	8.256010085438506678e+06
7.175766978768246228e-04	7.906889509994088672e+06
7.354737939569980709e-04	7.572617721827515401e+06
7.538000049615516769e-04	7.252559771066683345e+06
7.725651311262279452e-04	6.946108007795186713e+06
7.917791829761270305e-04	6.652680870950318873e+06
8.114523854716611511e-04	6.371721792972208932e+06
8.315951822265067479e-04	6.102698108221171424e+06
8.522182397986174506e-04	5.845100024314157665e+06
8.733324520552252770e-04	5.598439629248313606e+06
8.949489446129024490e-04	5.362249957485970110e+06
9.170790793536682823e-04	5.136084077932399698e+06
9.397344590181735263e-04	4.919514236007597297e+06
9.629269318770014704e-04	4.712131024399295449e+06
9.866685964810943416e-04	4.513542592542445287e+06
1.010971806492398086e-03	4.323373891215868294e+06
1.035849175595709992e-03	4.141265945035491139e+06
1.061313582492840564e-03	3.966875167070193216e+06
1.087378175980112383e-03	3.799872689028140623e+06
1.114056380110273105e-03	3.639943731109017506e+06
1.141361899439904092e-03	3.486786995841860306e+06
1.169308724363354868e-03	3.340114086603022180e+06
1.197911136534356158e-03	3.199648952180014458e+06
1.227183714376308288e-03	3.065127357742074877e+06
1.257141338682400298e-03	2.936296373769374099e+06
1.287799198306607742e-03	2.812913893055830617e+06
1.319172795946686782e-03	2.694748161698987242e+06
1.351277954020239664e-03	2.581577338496090379e+06
1.384130820634971995e-03	2.473189065066497773e+06
1.417747875654217990e-03	2.369380060313580092e+06
1.452145936858859976e-03	2.269955730384364258e+06
1.487342166206730458e-03	2.174729794402318541e+06
1.523354076190610012e-03	2.083523930377420736e+06
1.560199536295921044e-03	1.996167429030928295e+06
1.597896779559228493e-03	1.912496871245555812e+06
1.636464409228660308e-03	1.832355813306349330e+06
1.675921405527329303e-03	1.755594487745046150e+06
1.716287132520896101e-03	1.682069517350975424e+06
1.757581345090347604e-03	1.611643640402794583e+06
1.799824196011115540e-03	1.544185449466528604e+06
1.843036243139615799e-03	1.479569139613412321e+06
1.887238456708316848e-03	1.417674269047655398e+06
1.932452226730431606e-03	1.358385528505133232e+06
1.978699370515327183e-03	1.301592521817525849e+06
2.026002140295705880e-03	1.247189555808105972e+06
2.074383230967695880e-03	1.195075438091732794e+06
2.123865787944878136e-03	1.145153285179151455e+06
2.174473415127336270e-03	1.097330337473184569e+06
2.226230182986805878e-03	1.051517783316709567e+06
2.279160636768948027e-03	1.007630589544081711e+06
2.333289804813839380e-03	9.655873405474567553e+05
2.388643206995657783e-03	9.253100826709124958e+05
2.445246863282662681e-03	8.867241768348569749e+05
2.503127302418446578e-03	8.497581569555907045e+05
2.562311570725470198e-03	8.143435941506410018e+05
2.622827241031905256e-03	7.804149663895601407e+05
2.684702421722741979e-03	7.479095354589592898e+05
2.747965765916183124e-03	7.167672268994566984e+05
2.812646480766201398e-03	6.869305174535075203e+05
2.878774336892313268e-03	6.583443251496065641e+05
2.946379677937425653e-03	6.309559055619264254e+05
3.015493430254692717e-03	6.047147521859663539e+05
3.086147112724301270e-03	5.795724996262800414e+05
3.158372846701039145e-03	5.554828374418481253e+05
3.232203366093550773e-03	5.324014122309508966e+05
3.307672027576047998e-03	5.102857567665126990e+05
3.384812820933416361e-03	4.890951984925685101e+05
3.463660379540413337e-03	4.687907908366917400e+05
3.544249990975813745e-03	4.493352357802745537e+05
3.626617607772211847e-03	4.306928145855918410e+05
3.710799858302256393e-03	4.128293208693953347e+05
3.796834057802025986e-03	3.957119958684042795e+05
3.884758219532169227e-03	3.793094667751466040e+05
3.974611066077561247e-03	3.635916880381120718e+05
4.066432040786046448e-03	3.485298846899396158e+05
4.160261319346889378e-03	3.340964981676397729e+05
4.256139821509492306e-03	3.202651354754166096e+05
4.354109222942931581e-03	3.070105180719393538e+05
4.454211967236822341e-03	2.943084360264494899e+05
4.556491278043998602e-03	2.821357016242688405e+05
4.660991171365382567e-03	2.704701065207952634e+05
4.767756467977552273e-03	2.592903797593899653e+05
4.876832806003293837e-03	2.485761482277248579e+05
4.988266653625503429e-03	2.383078984655783279e+05
5.102105321944712217e-03	2.284669401155291416e+05
5.218396977980490140e-03	2.190353710246807314e+05
5.337190657816971370e-03	2.099960428419971431e+05
5.458536280217926064e-03	2.013325316284928413e+05
5.582484658810290580e-03	1.930291065595555410e+05
5.709087517469828982e-03	1.850706968666265893e+05
5.838397502881370604e-03	1.774428668004953070e+05
5.970468198687366515e-03	1.701317898246004479e+05
6.105354139499747160e-03	1.631242208577595593e+05
6.243110825056101196e-03	1.564074722426012449e+05
6.383794734519807751e-03	1.499693901834080752e+05
6.527463340924136853e-03	1.437983320520791167e+05
6.674175125759835778e-03	1.378831448330772982e+05
6.823989593705960185e-03	1.322131444051982253e+05
6.976967287503495554e-03	1.267780956665656704e+05
7.133169802971350837e-03	1.215681935992674844e+05
7.292659804164184842e-03	1.165740450495848927e+05
7.455501038671395742e-03	1.117866513277057384e+05
7.621758353056786242e-03	1.071973915663158405e+05
7.791497708438040529e-03	1.027980067483832390e+05
7.964786196205275726e-03	9.858058440091638477e+04
8.141692053877831736e-03	9.453754393959924346e+04
8.322284681098315873e-03	9.066162280205477146e+04
8.506634655762998487e-03	8.694586286949289206e+04
8.694813750287310600e-03	8.338359766406942799e+04
8.886894948005499839e-03	7.996844007684577082e+04
9.082952459703055176e-03	7.669427061485309969e+04
9.283061740280687882e-03	7.355522601149688126e+04
9.487299505548369913e-03	7.054568854194894084e+04
9.695743749148093976e-03	6.766027565253210196e+04
9.908473759603658726e-03	6.489382994848425005e+04
1.012557013749597508e-02	6.224140987601510278e+04
1.034711481276196290e-02	5.969828051222668000e+04
1.057319106211541612e-02	5.725990494030321133e+04
1.080388352658783434e-02	5.492193586111572949e+04
1.103927822918715843e-02	5.268020764851223066e+04
1.127946259267238911e-02	5.053072872491916496e+04
1.152452545744183342e-02	4.846967419177822012e+04
1.177455709953275503e-02	4.649337893946445547e+04
1.202964924872983524e-02	4.459833056148659671e+04
1.228989510678021174e-02	4.278116364219743991e+04
1.255538936571227136e-02	4.103865287399133376e+04
1.282622822625556144e-02	3.936770748608434951e+04
1.310250941668045059e-02	3.776536563989462593e+04
1.338433221017504282e-02	3.622878909151040716e+04
1.367179744533941234e-02	3.475525763476136490e+04
1.396500754382901804e-02	3.334216437247657450e+04
1.426406652951419177e-02	3.198701112497928625e+04
1.456908004744357325e-02	3.068740365205204580e+04
1.488015538288647507e-02	2.944104737449191816e+04
1.519740148045064035e-02	2.824574318204462179e+04
1.552092896327159771e-02	2.709938344434396276e+04
1.585085015226982141e-02	2.599994818968938125e+04
1.618727908547141700e-02	2.494550138468244768e+04
1.653033153738864280e-02	2.393418750831692523e+04
1.688012503845561299e-02	2.296422809742412937e+04
