# Data associated with arXiv:2110.09653
# 
# Scale-free velocity distribution, f(E), of a nfw0-6 dark matter distribution (see Eq. 13 and the surrounding discussion)
# 
# Published: 3/29/22, Jack Runburg, contact: runburg@hawaii.edu
# 
# 
# -----------------------------------------------------------------
# 
# 	 tilde E 		 | 		 tilde f
# 
# -----------------------------------------------------------------
2.976202174118554179e-08	5.722808741150750000e+12
3.046865621584454470e-08	5.503602588872338867e+12
3.119206833349223124e-08	5.284748898523256836e+12
3.193265644256594848e-08	5.067272435600956055e+12
3.269082834926771231e-08	4.854521177756693359e+12
3.346700154210775149e-08	4.642727178262806641e+12
3.426160342178044174e-08	4.437303991146928711e+12
3.507507153649609144e-08	4.240970047595298828e+12
3.590785382290100088e-08	4.053323303031891602e+12
3.676040885271632390e-08	3.873979132323988770e+12
3.763320608523203160e-08	3.702570298457326660e+12
3.852672612579635386e-08	3.538745689508119141e+12
3.944146099044027397e-08	3.382169731241020508e+12
4.037791437678598856e-08	3.232521694805479980e+12
4.133660194138508879e-08	3.089495043605656738e+12
4.231805158364246242e-08	2.952796804467191895e+12
4.332280373647956053e-08	2.822146967560089844e+12
4.435141166389789914e-08	2.697277910745111328e+12
4.540444176560809264e-08	2.577933856374535156e+12
4.648247388888882969e-08	2.463870341590819336e+12
4.758610164785151107e-08	2.354853720710266602e+12
4.871593275028204725e-08	2.250660686086046875e+12
4.987258933224383355e-08	2.151077811506662109e+12
5.105670830062287016e-08	2.055901113059316650e+12
5.226894168380467645e-08	1.964935633447401367e+12
5.350995699067771113e-08	1.877995040085955322e+12
5.478043757815718291e-08	1.794901247333174316e+12
5.608108302743602023e-08	1.715484046808246094e+12
5.741260952916555353e-08	1.639580762365759766e+12
5.877575027778261812e-08	1.567035915432902588e+12
6.017125587519507403e-08	1.497700907436113770e+12
6.159989474405312501e-08	1.431433714299983398e+12
6.306245355082973558e-08	1.368098596055075684e+12
6.455973763894440386e-08	1.307565819135847412e+12
6.609257147217099955e-08	1.249711389158342773e+12
6.766179908856864961e-08	1.194416799372101318e+12
6.926828456519162110e-08	1.141568785841073486e+12
7.091291249382778475e-08	1.091059096479069214e+12
7.259658846803353345e-08	1.042784268504141724e+12
7.432023958172818582e-08	9.966454177119095459e+11
7.608481493962445762e-08	9.525480344442453613e+11
7.789128617977789674e-08	9.104017913023369141e+11
7.974064800853752907e-08	8.701203573729232178e+11
8.163391874819906042e-08	8.316212215582509766e+11
8.357214089765479317e-08	7.948255234971242676e+11
8.555638170635576418e-08	7.596578925802103271e+11
8.758773376189644890e-08	7.260462925033189697e+11
8.966731559154753053e-08	6.939218745933265381e+11
9.179627227807031966e-08	6.632188364457867432e+11
9.397577609014553630e-08	6.338742874247752686e+11
9.620702712777120224e-08	6.058281189648933105e+11
9.849125398297663609e-08	5.790228828618361816e+11
1.008297144162240676e-07	5.534036723073958740e+11
1.032236960488640014e-07	5.289180099991577759e+11
1.056745170720271620e-07	5.055157407178291626e+11
1.081835269723469973e-07	4.831489281869604492e+11
1.107521072749039895e-07	4.617717573846958008e+11
1.133816723038104725e-07	4.413404403926091919e+11
1.160736699608443188e-07	4.218131266054434204e+11
1.188295825225697953e-07	4.031498173520937500e+11
1.216509274563762782e-07	3.853122836395083008e+11
1.245392582558870227e-07	3.682639879217584839e+11
1.274961652962009716e-07	3.519700095700488892e+11
1.305232767094299623e-07	3.363969723544630737e+11
1.336222592810234464e-07	3.215129784610599365e+11
1.367948193673629871e-07	3.072875393654522095e+11
1.400427038351421797e-07	2.936915167568535156e+11
1.433677010230402402e-07	2.806970614542740479e+11
1.467716417262212538e-07	2.682775563852621765e+11
1.502564002042057874e-07	2.564075621303960876e+11
1.538238952126582932e-07	2.450627650533510132e+11
1.574760910596715778e-07	2.342199271372412415e+11
1.612149986871152947e-07	2.238568386508184204e+11
1.650426767776574749e-07	2.139522725478708496e+11
1.689612328880565739e-07	2.044859408885836182e+11
1.729728246093519222e-07	1.954384537754960327e+11
1.770796607545961943e-07	1.867912787108155212e+11
1.812840025747708074e-07	1.785267035229838562e+11
1.855881650035682026e-07	1.706277998125723267e+11
1.899945179317104834e-07	1.630783878741846313e+11
1.945054875115204705e-07	1.558630041611001587e+11
1.991235574924504348e-07	1.489668692557484741e+11
2.038512705883078884e-07	1.423758576767764587e+11
2.086912298769362371e-07	1.360764689000189819e+11
2.136461002331066946e-07	1.300557997921477814e+11
2.187186097954265376e-07	1.243015181608971252e+11
2.239115514680524198e-07	1.188018374238019257e+11
2.292277844580531074e-07	1.135454925045169983e+11
2.346702358492520430e-07	1.085217168067646637e+11
2.402419022134212835e-07	1.037202200864151611e+11
2.459458512597199286e-07	9.913116738441473389e+10
2.517852235232674039e-07	9.474515893729083252e+10
2.577632340938011484e-07	9.055321090471984863e+10
2.638831743853477699e-07	8.654673688968186951e+10
2.701484139479022172e-07	8.271753043681738281e+10
2.765624023220935568e-07	7.905774819754696655e+10
2.831286709378647514e-07	7.555989390346322632e+10
2.898508350582180332e-07	7.221680282776852417e+10
2.967325957690750267e-07	6.902162741683679199e+10
3.037777420163715050e-07	6.596782302902811432e+10
3.109901526914795581e-07	6.304913457953608704e+10
3.183737987661303665e-07	6.025958377547963715e+10
3.259327454779909218e-07	5.759345683170951080e+10
3.336711545681033566e-07	5.504529277404955292e+10
3.415932865714276288e-07	5.260987224807494354e+10
3.497035031617235933e-07	5.028220684572093964e+10
3.580062695520898607e-07	4.805752887061273193e+10
3.665061569524504822e-07	4.593128159168799591e+10
3.752078450853684281e-07	4.389910986672856140e+10
3.841161247615461435e-07	4.195685126165603638e+10
3.932359005164375723e-07	4.010052757264268494e+10
4.025721933094330985e-07	3.832633651131163025e+10
4.121301432870727680e-07	3.663064409106275177e+10
4.219150126118414582e-07	3.500997710240280151e+10
4.319321883580660523e-07	3.346101601049933624e+10
4.421871854765394361e-07	3.198058815628254318e+10
4.526856498294743299e-07	3.056566125730971146e+10
4.634333612974646607e-07	2.921333719257382965e+10
4.744362369601755947e-07	2.792084608102737045e+10
4.857003343524790054e-07	2.668554059330716705e+10
4.972318547978631230e-07	2.550489052837534332e+10
5.090371468209059853e-07	2.437647764432267380e+10
5.211227096407303210e-07	2.329799068691634750e+10
5.334951967473255193e-07	2.226722067719065857e+10
5.461614195627140307e-07	2.128205636124707794e+10
5.591283511889907374e-07	2.034047991063637161e+10
5.724031302452554671e-07	1.944056276807890701e+10
5.859930647955961491e-07	1.858046172065331268e+10
5.999056363702285473e-07	1.775841508487155914e+10
6.141485040820528789e-07	1.697273915272298813e+10
6.287295088408473910e-07	1.622182469378893471e+10
6.436566776674303549e-07	1.550413368812259102e+10
6.589382281101777318e-07	1.481819616281546974e+10
6.745825727662795347e-07	1.416260718836487961e+10
6.905983239102721704e-07	1.353602398408263206e+10
7.069942982323312180e-07	1.293716320519103241e+10
7.237795216889888774e-07	1.236479826713435936e+10
7.409632344688741524e-07	1.181775687126367760e+10
7.585548960762701274e-07	1.129491857849589539e+10
7.765641905352186448e-07	1.079521252986494827e+10
7.950010317170738927e-07	1.031761524250983429e+10
8.138755687944154155e-07	9.861148524421020508e+09
8.331981918242967024e-07	9.424877453004898071e+09
8.529795374639409292e-07	9.007908484934886932e+09
8.732304948219646202e-07	8.609387604913311005e+09
8.939622114483891387e-07	8.228498584950907707e+09
9.151860994667018283e-07	7.864461311179104805e+09
9.369138418513412746e-07	7.516530186474226952e+09
9.591573988540587729e-07	7.183992598539109230e+09
9.819290145826558347e-07	6.866167480194001198e+09
1.005241223735761044e-06	6.562403874640273094e+09
1.029106858497279192e-06	6.272079652055658340e+09
1.053539055594345294e-06	5.994600186373294830e+09
1.078551263522634213e-06	5.729397174032274246e+09
1.104157249942993292e-06	5.475927453166291237e+09
1.130371109253465639e-06	5.233671893065073013e+09
1.157207270340831044e-06	5.002134333813602448e+09
1.184680504515969980e-06	4.780840568435373306e+09
1.212805933637338171e-06	4.569337367191673279e+09
1.241599038427060888e-06	4.367191558055074692e+09
1.271075666984183065e-06	4.173989133689877510e+09
1.301252043499746826e-06	3.989334402315599918e+09
1.332144777178492745e-06	3.812849183079679012e+09
1.363770871372032407e-06	3.644172023882934093e+09
1.396147732928581888e-06	3.482957466959051132e+09
1.429293181764276724e-06	3.328875340001425743e+09
1.463225460661427755e-06	3.181610078299123764e+09
1.497963245298988092e-06	3.040860078945332527e+09
1.533525654520806578e-06	2.906337083120590687e+09
1.569932260847262198e-06	2.777765587363693714e+09
1.607203101236020402e-06	2.654882276204070568e+09
1.645358688097885261e-06	2.537435485763560772e+09
1.684420020573666309e-06	2.425184686366431713e+09
1.724408596078379356e-06	2.317899989525794506e+09
1.765346422118972242e-06	2.215361679338058949e+09
1.807256028392145115e-06	2.117359761681109190e+09
1.850160479168870824e-06	2.023693531640550852e+09
1.894083385972338106e-06	1.934171166013986826e+09
1.939048920556392215e-06	1.848609326633349419e+09
1.985081828191413775e-06	1.766832789941549540e+09
2.032207441265089965e-06	1.688674082701562405e+09
2.080451693205359986e-06	1.613973142446355820e+09
2.129841132733281553e-06	1.542576988247192621e+09
2.180402938453564736e-06	1.474339407507015467e+09
2.232164933790760047e-06	1.409120657308981419e+09
2.285155602279318687e-06	1.346787176505590439e+09
2.339404103215805100e-06	1.287211314844477892e+09
2.394940287681969373e-06	1.230271067163110495e+09
2.451794714947284869e-06	1.175849830303151846e+09
2.509998669260057583e-06	1.123836155637404919e+09
2.569584177036219575e-06	1.074123528595455170e+09
2.630584024455238202e-06	1.026610145933516979e+09
2.693031775472775305e-06	9.811987090019097328e+08
2.756961790259879575e-06	9.377962236615195274e+08
2.822409244078935361e-06	8.963138103501505852e+08
2.889410146606517079e-06	8.566665218170393705e+08
2.958001361713849356e-06	8.187731694682725668e+08
3.028220627715629806e-06	7.825561558943117857e+08
3.100106578098262716e-06	7.479413180575176477e+08
3.173698762738912744e-06	7.148577733856152296e+08
3.249037669626832224e-06	6.832377755793490410e+08
3.326164747099029733e-06	6.530165755550640821e+08
3.405122426602207867e-06	6.241322891975758076e+08
3.485954145993586751e-06	5.965257700683146715e+08
3.568704373393222242e-06	5.701404885483769178e+08
3.653418631600911395e-06	5.449224164113441706e+08
3.740143523090991244e-06	5.208199153137713075e+08
3.828926755598619839e-06	4.977836318662465811e+08
3.919817168311687539e-06	4.757663961562523246e+08
4.012864758682385415e-06	4.547231249555616975e+08
4.108120709873306374e-06	4.346107303187425137e+08
4.205637418852914759e-06	4.153880297323305011e+08
4.305468525155744552e-06	3.970156632283059955e+08
4.407668940323058096e-06	3.794560121140317321e+08
4.512294878039885333e-06	3.626731220917910337e+08
4.619403884985116562e-06	3.466326294563267231e+08
4.729054872411170071e-06	3.313016909853291512e+08
4.841308148470707264e-06	3.166489163568251133e+08
4.956225451307850075e-06	3.026443040553424358e+08
5.073869982931999231e-06	2.892591799237651229e+08
5.194306443892725449e-06	2.764661384585578442e+08
5.317601068774487732e-06	2.642389865221090615e+08
5.443821662530773177e-06	2.525526898901536763e+08
5.573037637677107012e-06	2.413833218652307689e+08
5.705320052363464942e-06	2.307080142315770388e+08
5.840741649346647845e-06	2.205049106635246575e+08
5.979376895883876787e-06	2.107531216054916084e+08
6.121302024569350861e-06	2.014326818285062909e+08
6.266595075135812720e-06	1.925245093210556805e+08
6.415335937244185660e-06	1.840103663000183702e+08
6.567606394284125053e-06	1.758728218441725373e+08
6.723490168209658438e-06	1.680952161688474715e+08
6.883072965434064874e-06	1.606616265565799773e+08
7.046442523809009829e-06	1.535568347370271981e+08
7.213688660713502452e-06	1.467662956401430368e+08
7.384903322278552072e-06	1.402761077667271495e+08
7.560180633774744189e-06	1.340729845515304804e+08
7.739616951189397156e-06	1.281442272828594148e+08
7.923310914022036841e-06	1.224776990721896142e+08
8.111363499326195573e-06	1.170617998023041785e+08
8.303878077027241651e-06	1.118854427555161566e+08
8.500960466546175274e-06	1.069380315561835468e+08
8.702718994759811206e-06	1.022094386677865386e+08
8.909264555329326243e-06	9.768998459756805003e+07
9.120710669428591294e-06	9.337041799129433930e+07
9.337173547905950878e-06	8.924189688223868608e+07
9.558772154912411465e-06	8.529597049997256696e+07
9.785628273031210967e-06	8.152456147694595158e+07
1.001786656994383315e-05	7.791995051761576533e+07
1.025561466666826935e-05	7.447475929841050506e+07
1.049900320740715780e-05	7.118193608576728404e+07
1.074816593104256006e-05	6.803474104298661649e+07
1.100323974431712927e-05	6.502673253427752852e+07
1.126436479674021011e-05	6.215175386106007546e+07
1.153168455726007199e-05	5.940392072693351656e+07
1.180534589274331239e-05	5.677760910837493837e+07
1.208549914830389386e-05	5.426744377796679735e+07
1.237229822952527598e-05	5.186828731711314619e+07
1.266590068661962185e-05	4.957522957503620535e+07
1.296646780057020347e-05	4.738357759847871214e+07
1.327416467130251206e-05	4.528884603898613900e+07
1.358916030793242526e-05	4.328674798316119611e+07
1.391162772113953598e-05	4.137318612577324361e+07
1.424174401771560928e-05	3.954424445623379946e+07
1.457969049733910803e-05	3.779618016240089387e+07
1.492565275162744761e-05	3.612541600916143507e+07
1.527982076552113750e-05	3.452853302412807941e+07
1.564238902105324219e-05	3.300226344044940174e+07
1.601355660356080919e-05	3.154348408537156507e+07
1.639352731039484611e-05	3.014920987805436179e+07
1.678250976218745123e-05	2.881658789764522016e+07
1.718071751673581340e-05	2.754289130067421496e+07
1.758836918556377449e-05	2.632551393445649371e+07
1.800568855322446174e-05	2.516196491217064485e+07
1.843290469940666343e-05	2.404986353683940321e+07
1.887025212391146723e-05	2.298693441679408401e+07
1.931797087456543977e-05	2.197100280588293076e+07
1.977630667813917403e-05	2.099999016107553616e+07
2.024551107434101685e-05	2.007190989171050861e+07
2.072584155295793731e-05	1.918486326445285603e+07
2.121756169421638399e-05	1.833703554005015269e+07
2.172094131243865612e-05	1.752669225541202351e+07
2.223625660307112985e-05	1.675217566291241907e+07
2.276379029316298513e-05	1.601190134394223057e+07
2.330383179537557590e-05	1.530435496468422562e+07
2.385667736560467369e-05	1.462808917090323567e+07
2.442263026429966104e-05	1.398172062948722765e+07
2.500200092156510981e-05	1.336392719411500171e+07
2.559510710613332733e-05	1.277344519829045609e+07
2.620227409829716086e-05	1.220906687743495218e+07
2.682383486689534664e-05	1.166963785933505371e+07
2.746013025044420370e-05	1.115405489515971765e+07
2.811150914251202087e-05	1.066126345161494985e+07
2.877832868143434875e-05	1.019025568994340673e+07
2.946095444447112565e-05	9.740068335307555273e+06
3.015976064650783376e-05	9.309780716473978013e+06
3.087513034340682894e-05	8.898512887222573161e+06
3.160745564011570915e-05	8.505423818802904338e+06
3.235713790364327296e-05	8.129709670619335026e+06
3.312458798101529313e-05	7.770602172441766597e+06
3.391022642232535944e-05	7.427367024178028107e+06
3.471448370899876538e-05	7.099302400196781382e+06
3.553780048738901622e-05	6.785737519038022496e+06
3.638062780783116721e-05	6.486031264602232724e+06
3.724342736927693272e-05	6.199570876963503659e+06
3.812667176964073547e-05	5.925770689940159209e+06
3.903084476198829769e-05	5.664070947874306701e+06
3.995644151670208638e-05	5.413936647994186729e+06
4.090396888976180804e-05	5.174856447115150280e+06
4.187394569727956398e-05	4.946341617278685793e+06
4.286690299643492239e-05	4.727925043503990397e+06
4.388338437295592189e-05	4.519160277015410364e+06
4.492394623529673807e-05	4.319620584445524961e+06
4.598915811566594902e-05	4.128898142844773829e+06
4.707960297806214876e-05	3.946603147930333391e+06
4.819587753347830529e-05	3.772363025316185784e+06
4.933859256243794785e-05	3.605821686922653113e+06
5.050837324503263721e-05	3.446638787698001135e+06
5.170585949863110153e-05	3.294489036326224450e+06
5.293170632343638317e-05	3.149061523125900421e+06
5.418658415606967974e-05	3.010059089067314286e+06
5.547117923136499055e-05	2.877197715572921094e+06
5.678619395256159330e-05	2.750205941475105472e+06
5.813234727008540767e-05	2.628824312330706976e+06
5.951037506911632682e-05	2.512804844999891240e+06
6.092103056614044072e-05	2.401910521562731825e+06
6.236508471469233645e-05	2.295914805532955565e+06
6.384332662049629307e-05	2.194601177112131845e+06
6.535656396621995865e-05	2.097762689150337130e+06
6.690562344605881370e-05	2.005201546153558418e+06
6.849135121037525445e-05	1.916728701344763162e+06
7.011461332061830480e-05	1.832163460201309994e+06
7.177629621475952013e-05	1.751333122206751956e+06
7.347730718348107306e-05	1.674072622370293597e+06
7.521857485736023789e-05	1.600224193010458956e+06
7.700104970529840671e-05	1.529637042439447250e+06
7.882570454444861176e-05	1.462167045211071847e+06
8.069353506190135572e-05	1.397676449099768186e+06
8.260556034839259089e-05	1.336033591128784930e+06
8.456282344430602227e-05	1.277112630094426917e+06
8.656639189824547455e-05	1.220793287727236049e+06
8.861735833845974398e-05	1.166960603797596181e+06
9.071684105740906480e-05	1.115504700086619938e+06
9.286598460976721225e-05	1.066320555953183444e+06
9.506596042416155844e-05	1.019307793665560544e+06
9.731796742895620260e-05	9.743704727438443806e+05
9.962323269239519656e-05	9.314168943571253913e+05
1.019830120774245123e-04	8.903594128992960323e+05
1.043985909115206551e-04	8.511142571316366084e+05
1.068712846718606696e-04	8.136013595280440059e+05
1.094024396861753069e-04	7.777441912164116511e+05
1.119934338496334072e-04	7.434696064329554792e+05
1.146456773581131053e-04	7.107076926507105818e+05
1.173606134582252459e-04	6.793916276004578685e+05
1.201397192144579643e-04	6.494575427217198303e+05
1.229845062938227844e-04	6.208443923230451765e+05
1.258965217683877345e-04	5.934938287807145389e+05
1.288773489360933505e-04	5.673500837145815603e+05
1.319286081602543488e-04	5.423598535617797170e+05
1.350519577281564297e-04	5.184721901448810240e+05
1.382490947291708616e-04	4.956383976819163072e+05
1.415217559528131536e-04	4.738119321697530686e+05
1.448717188071830218e-04	4.529483064452133840e+05
1.483008022582326378e-04	4.330049998355794814e+05
1.518108677903173321e-04	4.139413704309000168e+05
1.554038203884934967e-04	3.957185724865954835e+05
1.590816095430379958e-04	3.782994769159211428e+05
1.628462302766697952e-04	3.616485953397395206e+05
1.666997241949709702e-04	3.457320076991729438e+05
1.706441805605059877e-04	3.305172926304492867e+05
1.746817373911546103e-04	3.159734615129283047e+05
1.788145825831801968e-04	3.020708953267957550e+05
1.830449550595669858e-04	2.887812835920953657e+05
1.873751459441722349e-04	2.760775677833415102e+05
1.918074997622428216e-04	2.639338903553710552e+05
1.963444156678685495e-04	2.523255228340133908e+05
2.009883486989433711e-04	2.412287702818202670e+05
2.057418118506189114e-04	2.306210921159613936e+05
2.106073743097243000e-04	2.204810163466017693e+05
2.155876672935829331e-04	2.107878250911060895e+05
2.206853824966154140e-04	2.015217422338492761e+05
2.259032742055196001e-04	1.926639579913752386e+05
2.312441607320395187e-04	1.841964540664859232e+05
2.367109258776013963e-04	1.761020079391122854e+05
2.423065204304876256e-04	1.683641579576278455e+05
2.480339636962339668e-04	1.609671695029578405e+05
2.538963450619434112e-04	1.538960030153935368e+05
2.598968255952292458e-04	1.471362830978720158e+05
2.660386396785030549e-04	1.406742693148776016e+05
2.723250966793498208e-04	1.344968281146683730e+05
2.787595826577334273e-04	1.285914059051231889e+05
