# Data associated with arXiv:2110.09653
# 
# Scale-free velocity distribution, f(E), of a nfw0-8 dark matter distribution (see Eq. 13 and the surrounding discussion)
# 
# Published: 3/29/22, Jack Runburg, contact: runburg@hawaii.edu
# 
# 
# -----------------------------------------------------------------
# 
# 	 tilde E 		 | 		 tilde f
# 
# -----------------------------------------------------------------
3.787906808180173017e-07	2.147217363145764648e+12
3.864864776001312544e-07	2.066885610648191895e+12
3.943386295183268028e-07	1.986869109941805664e+12
4.023503131971739410e-07	1.907519130409164795e+12
4.105247697985546982e-07	1.830040910354850098e+12
4.188653063327656388e-07	1.752972120172889648e+12
4.273752969962714593e-07	1.678219991320134521e+12
4.360581845366169501e-07	1.606655534705274902e+12
4.449174816450809803e-07	1.538142867712320557e+12
4.539567723776112185e-07	1.472551751197864014e+12
4.631797136046226662e-07	1.409757650921550781e+12
4.725900364902590668e-07	1.349641292875325684e+12
4.821915480016861868e-07	1.292088489599017334e+12
4.919881324490631465e-07	1.236989921750187256e+12
5.019837530567779495e-07	1.184240932936563965e+12
5.121824535666174247e-07	1.133741329521387939e+12
5.225883598734926677e-07	1.085395190398726318e+12
5.332056816943896670e-07	1.039110684822159302e+12
5.440387142712373538e-07	9.947998977162855225e+11
5.550918401083444413e-07	9.523786628500826416e+11
5.663695307451531985e-07	9.117664032159393311e+11
5.778763485649803702e-07	8.728859806279904785e+11
5.896169486405202811e-07	8.356635411432806396e+11
6.015960806168226882e-07	8.000283839261082764e+11
6.138185906325184062e-07	7.659128219108173828e+11
6.262894232800863761e-07	7.332520547938658447e+11
6.390136236059169879e-07	7.019840451834117432e+11
6.519963391510258912e-07	6.720494013094853516e+11
6.652428220331963986e-07	6.433912642798005371e+11
6.787584310714416677e-07	6.159551996114924316e+11
6.925486339535921887e-07	5.896890940524879150e+11
7.066190094479394665e-07	5.645430570105750732e+11
7.209752496597865326e-07	5.404693249021983643e+11
7.356231623338323613e-07	5.174221712833946533e+11
7.505686732033436336e-07	4.953578194814434204e+11
7.658178283870137148e-07	4.742343594216599121e+11
7.813767968345379910e-07	4.540116687890734863e+11
7.972518728218329593e-07	4.346513357034543457e+11
8.134494784969679222e-07	4.161165864852587891e+11
8.299761664777880319e-07	3.983722156172947388e+11
8.468386225023012403e-07	3.813845187689771118e+11
8.640436681329190748e-07	3.651212289994185181e+11
8.815982635155928776e-07	3.495514551782974243e+11
8.995095101950272270e-07	3.346456236339888916e+11
9.177846539870391763e-07	3.203754216675529785e+11
9.364310879092917224e-07	3.067137441660410767e+11
9.554563551715319738e-07	2.936346415254296875e+11
9.748681522265646509e-07	2.811132709606053467e+11
9.946743318832155874e-07	2.691258491271288147e+11
1.014882906482489077e-06	2.576496066142557983e+11
1.035502051138272414e-06	2.466627451760341797e+11
1.056540107043822177e-06	2.361443960222952271e+11
1.078005584845444997e-06	2.260745802709413757e+11
1.099907168084675135e-06	2.164341711846070557e+11
1.122253716710360436e-06	2.072048573577658081e+11
1.145054270662110386e-06	1.983691085145930786e+11
1.168318053526479734e-06	1.899101417597776794e+11
1.192054476267455968e-06	1.818118899513701477e+11
1.216273141032666656e-06	1.740589710046514587e+11
1.240983845036933188e-06	1.666366589475001831e+11
1.266196584524667817e-06	1.595308556440203247e+11
1.291921558812746672e-06	1.527280641339014893e+11
1.318169174415518496e-06	1.462153631177124023e+11
1.344950049253546186e-06	1.399803822009048462e+11
1.372275016947871772e-06	1.340112785594165955e+11
1.400155131201443207e-06	1.282967143507225189e+11
1.428601670269571297e-06	1.228258352259678345e+11
1.457626141521143467e-06	1.175882497788885956e+11
1.487240286092466299e-06	1.125740095461279755e+11
1.517456083635659173e-06	1.077735904999638367e+11
1.548285757163421206e-06	1.031778745955634766e+11
1.579741777992248405e-06	9.877813268259706116e+10
1.611836870785974247e-06	9.456600785106529236e+10
1.644584018701793204e-06	9.053349950658262634e+10
1.677996468640748412e-06	8.667294832009532166e+10
1.712087736604840466e-06	8.297702147387577820e+10
1.746871613162968291e-06	7.943869879117671204e+10
1.782362169027805723e-06	7.605125988946905518e+10
1.818573760745990115e-06	7.280827031720162964e+10
1.855521036503797337e-06	6.970357043241075134e+10
1.893218942050772672e-06	6.673126314711276245e+10
1.931682726743605445e-06	6.388570284699520111e+10
1.970927949712733020e-06	6.116148467575915527e+10
2.010970486154205501e-06	5.855343423614681244e+10
2.051826533749250187e-06	5.605659780142543793e+10
2.093512619214258342e-06	5.366623289803530121e+10
2.136045604983697274e-06	5.137779924999654388e+10
2.179442696028796710e-06	4.918695021906802368e+10
2.223721446814636545e-06	4.708952451349140167e+10
2.268899768398496391e-06	4.508153828990009308e+10
2.314995935672390042e-06	4.315917760360165405e+10
2.362028594752572856e-06	4.131879111774211121e+10
2.410016770519175570e-06	3.955688323651267242e+10
2.458979874308833433e-06	3.787010740363294983e+10
2.508937711763589958e-06	3.625525977518647766e+10
2.559910490839104701e-06	3.470927312594231415e+10
2.611918829975451128e-06	3.322921103893678665e+10
2.664983766433871115e-06	3.181226229964225388e+10
2.719126764802692080e-06	3.045573558390663910e+10
2.774369725676043083e-06	2.915705432670086670e+10
2.830734994508661020e-06	2.791375183299822235e+10
2.888245370650568504e-06	2.672346661054155731e+10
2.946924116565107694e-06	2.558393788545730209e+10
3.006794967234109542e-06	2.449300115337638855e+10
3.067882139754074889e-06	2.344858442952096558e+10
3.130210343127061344e-06	2.244870394266769791e+10
3.193804788250443743e-06	2.149146054854108047e+10
3.258691198109360288e-06	2.057503608722864914e+10
3.324895818176176075e-06	1.969768992022372818e+10
3.392445427020978943e-06	1.885775566070527267e+10
3.461367347137466078e-06	1.805363795869135284e+10
3.531689455988669108e-06	1.728380949998827744e+10
3.603440197276771939e-06	1.654680810731523132e+10
3.676648592441825261e-06	1.584123394861040688e+10
3.751344252393735634e-06	1.516574688170640564e+10
3.827557389482513068e-06	1.451906392084086990e+10
3.905318829711409546e-06	1.389995678620513153e+10
3.984660025197945974e-06	1.330724956546264076e+10
4.065613066887955067e-06	1.273981651345853806e+10
4.148210697527540265e-06	1.219657986680295563e+10
4.232486324898472910e-06	1.167650783601896286e+10
4.318474035322053966e-06	1.117861262347702599e+10
4.406208607437200969e-06	1.070194855144930458e+10
4.495725526258066011e-06	1.024561027681241608e+10
4.587060997516947131e-06	9.808731058775152206e+09
4.680251962298394376e-06	9.390481115268014908e+09
4.775336111970137392e-06	8.990066047811727524e+09
4.872351903417202530e-06	8.606725337241697311e+09
4.971338574584993678e-06	8.239730895351058960e+09
5.072336160337968267e-06	7.888385676794276237e+09
5.175385508640009605e-06	7.552022360833193779e+09
5.280528297063131205e-06	7.230002089408226013e+09
5.387807049631298689e-06	6.921713239424599648e+09
5.497265154005848221e-06	6.626570272975896835e+09
5.608946879019814751e-06	6.344012622086339951e+09
5.722897392567831984e-06	6.073503619013030052e+09
5.839162779859239234e-06	5.814529484639319420e+09
5.957790062041303551e-06	5.566598347021549225e+09
6.078827215200524331e-06	5.329239308333408356e+09
6.202323189749250665e-06	5.102001553587804794e+09
6.328327930205726864e-06	4.884453489160868645e+09
6.456892395375437622e-06	4.676181926827960968e+09
6.588068578941753063e-06	4.476791297881510735e+09
6.721909530474486277e-06	4.285902900329345226e+09
6.858469376864433905e-06	4.103154183745542526e+09
6.997803344192863051e-06	3.928198055285572052e+09
7.139967780044564782e-06	3.760702223802522659e+09
7.285020176273527318e-06	3.600348568150643826e+09
7.433019192230430208e-06	3.446832532599225521e+09
7.584024678461137112e-06	3.299862548195713520e+09
7.738097700886082219e-06	3.159159480138537407e+09
7.895300565469844797e-06	3.024456093954512596e+09
8.055696843391202478e-06	2.895496553485402107e+09
8.219351396723622688e-06	2.772035931554450989e+09
8.386330404636548050e-06	2.653839744663240910e+09
8.556701390128096710e-06	2.540683507757129669e+09
8.730533247299750242e-06	2.432352309691091537e+09
8.907896269184343801e-06	2.328640402680989742e+09
9.088862176138126018e-06	2.229350813824465752e+09
9.273504144808686093e-06	2.134294966303947687e+09
9.461896837690186431e-06	2.043292328693609476e+09
9.654116433277849072e-06	1.956170064864712954e+09
9.850240656833915195e-06	1.872762711873170853e+09
1.005034881177716826e-05	1.792911858862569094e+09
1.025452181170913795e-05	1.716465852247590303e+09
1.046284221308923464e-05	1.643279504490207434e+09
1.067539424857262116e-05	1.573213819647901535e+09
1.089226386102358814e-05	1.506135728676490784e+09
1.111353873821860745e-05	1.441917836565561295e+09
1.133930834825278873e-05	1.380438181092568874e+09
1.156966397566382039e-05	1.321580001050841570e+09
1.180469875828841956e-05	1.265231513056849957e+09
1.204450772486533490e-05	1.211285701245884895e+09
1.228918783340089754e-05	1.159640113274965048e+09
1.253883801031169938e-05	1.110196664992713213e+09
1.279355919036068884e-05	1.062861455012236953e+09
1.305345435740257609e-05	1.017544586016941905e+09
1.331862858595460410e-05	9.741599945485496521e+08
1.358918908361006505e-05	9.326252861879636049e+08
1.386524523431065549e-05	8.928615805537881851e+08
1.414690864249608500e-05	8.547933607558310032e+08
1.443429317814764678e-05	8.183483301583446264e+08
1.472751502274461024e-05	7.834572748371398449e+08
1.502669271615146548e-05	7.500539323317509890e+08
1.533194720445490861e-05	7.180748654864184856e+08
1.564340188876991238e-05	6.874593428275103569e+08
1.596118267503405380e-05	6.581492219863837957e+08
1.628541802481075465e-05	6.300888399197628498e+08
1.661623900712098762e-05	6.032249075268355608e+08
1.695377935132488833e-05	5.775064077737638950e+08
1.729817550107413550e-05	5.528844990935567617e+08
1.764956666935677671e-05	5.293124225865836143e+08
1.800809489465674267e-05	5.067454133011420369e+08
1.837390509825000858e-05	4.851406149296422601e+08
1.874714514266131261e-05	4.644569988951514363e+08
1.912796589130372538e-05	4.446552859506586790e+08
1.951652126932582754e-05	4.256978717974972725e+08
1.991296832569041904e-05	4.075487556509993672e+08
2.031746729650969342e-05	3.901734717495304346e+08
2.073018166966242683e-05	3.735390243661932349e+08
2.115127825071846766e-05	3.576138242530602217e+08
2.158092723019790270e-05	3.423676293465083838e+08
2.201930225219060904e-05	3.277714872307230830e+08
2.246658048436459782e-05	3.137976799349480271e+08
2.292294268939064789e-05	3.004196715785708427e+08
2.338857329781190311e-05	2.876120576246672869e+08
2.386366048238774745e-05	2.753505168157298565e+08
2.434839623394099420e-05	2.636117650547017753e+08
2.484297643873996657e-05	2.523735111222729981e+08
2.534760095744479074e-05	2.416144142010539770e+08
2.586247370565083041e-05	2.313140435871912539e+08
2.638780273606047792e-05	2.214528395129795074e+08
2.692380032231664097e-05	2.120120764370483756e+08
2.747068304453124737e-05	2.029738277246817648e+08
2.802867187654242199e-05	1.943209302047879994e+08
2.859799227493628414e-05	1.860369531710108817e+08
2.917887426986742950e-05	1.781061664407336712e+08
2.977155255771550511e-05	1.705135105279564857e+08
3.037626659561410997e-05	1.632445680665877461e+08
3.099326069788995830e-05	1.562855364760013819e+08
3.162278413445091641e-05	1.496232017661437392e+08
3.226509123116122647e-05	1.432449134289492071e+08
3.292044147224550279e-05	1.371385599823173285e+08
3.358909960476035250e-05	1.312925470088723451e+08
3.427133574517674821e-05	1.256957740570179671e+08
3.496742548811471803e-05	1.203376141046767086e+08
3.567765001727383648e-05	1.152078932633838356e+08
3.640229621860390066e-05	1.102968714410174191e+08
3.714165679575981031e-05	1.055952239700690210e+08
3.789603038788828896e-05	1.010940234605611116e+08
3.866572168979116945e-05	9.678472365317502618e+07
3.945104157451461568e-05	9.265914233615559340e+07
4.025230721841205328e-05	8.870944638573420048e+07
4.106984222873083154e-05	8.492813653171680868e+07
4.190397677377321500e-05	8.130803334853516519e+07
4.275504771568266213e-05	7.784226354081663489e+07
4.362339874590979787e-05	7.452424683195257187e+07
4.450938052340909154e-05	7.134768360356360674e+07
4.541335081562400790e-05	6.830654276754926145e+07
4.633567464231381149e-05	6.539505044213628769e+07
4.727672442228070661e-05	6.260767891235743463e+07
4.823688012305507383e-05	5.993913619837776572e+07
4.921652941359663173e-05	5.738435591046445072e+07
5.021606782007488189e-05	5.493848771919080615e+07
5.123589888478656404e-05	5.259688810573790967e+07
5.227643432827690164e-05	5.035511151740581542e+07
5.333809421472514967e-05	4.820890198118006438e+07
5.442130712066235666e-05	4.615418498635708541e+07
5.552651030708686706e-05	4.418705974905645102e+07
5.665414989504449344e-05	4.230379179119247198e+07
5.780468104474557970e-05	4.050080589813230932e+07
5.897856813828531542e-05	3.877467928149358183e+07
6.017628496604397460e-05	3.712213507570361346e+07
6.139831491683605451e-05	3.554003616721072793e+07
6.264515117188671595e-05	3.402537915539903194e+07
6.391729690270963021e-05	3.257528875470475480e+07
6.521526547296509473e-05	3.118701222788802162e+07
6.653958064437774742e-05	2.985791423730611801e+07
6.789077678679343272e-05	2.858547181043474376e+07
6.926939909246078344e-05	2.736726947673911974e+07
7.067600379461743765e-05	2.620099487462055683e+07
7.211115839047060817e-05	2.508443414742020145e+07
7.357544186865672175e-05	2.401546785728288814e+07
7.506944494127055015e-05	2.299206692695712671e+07
7.659377028055486573e-05	2.201228879902828485e+07
7.814903276034132831e-05	2.107427374134462699e+07
7.973585970234092714e-05	2.017624129366334900e+07
8.135489112737548443e-05	1.931648695145728439e+07
8.300678001165242030e-05	1.849337884085755795e+07
8.469219254818064163e-05	1.770535467019465566e+07
8.641180841343032394e-05	1.695091878034039214e+07
8.816632103934087276e-05	1.622863927098694257e+07
8.995643789078136489e-05	1.553714528433859535e+07
9.178288074857533199e-05	1.487512441461552307e+07
9.364638599819512200e-05	1.424132021523432247e+07
9.554770492424229512e-05	1.363452980126663856e+07
9.748760401082647270e-05	1.305360157894076407e+07
9.946686524795978694e-05	1.249743305222143419e+07
1.014862864440859499e-04	1.196496872438909300e+07
1.035466815448656702e-04	1.145519810773421079e+07
1.056488809583403231e-04	1.096715378486059606e+07
1.077937318866023920e-04	1.049990959376744553e+07
1.099820986640989094e-04	1.005257887282653525e+07
1.122148631027000622e-04	9.624312727529473603e+06
1.144929248436653155e-04	9.214298471932563931e+06
1.168172017166441238e-04	8.821758076345626265e+06
1.191886301058492500e-04	8.445946672205440700e+06
1.216081653235428112e-04	8.086151149884097278e+06
1.240767819909812828e-04	7.741688801973483525e+06
1.265954744269640129e-04	7.411906024052374996e+06
1.291652570441356924e-04	7.096177086025931872e+06
1.317871647531949637e-04	6.793902923134913668e+06
1.344622533751638010e-04	6.504510015228815377e+06
1.371916000618767287e-04	6.227449292121972889e+06
1.399763037248507604e-04	5.962195094631593674e+06
1.428174854726987420e-04	5.708244170419655740e+06
1.457162890572562112e-04	5.465114722951329313e+06
1.486738813285898514e-04	5.232345494094313122e+06
1.516914526990625033e-04	5.009494889715182595e+06
1.547702176166310790e-04	4.796140147478381172e+06
1.579114150475577642e-04	4.591876518006849103e+06
1.611163089687194720e-04	4.396316514975756407e+06
1.643861888696995918e-04	4.209089165630561300e+06
1.677223702648565401e-04	4.029839312730060890e+06
1.711261952155607180e-04	3.858226945613667835e+06
1.745990328627984199e-04	3.693926538919344079e+06
1.781422799703448706e-04	3.536626450350165367e+06
1.817573614787104371e-04	3.386028321865584701e+06
1.854457310700712990e-04	3.241846513032500632e+06
1.892088717443941815e-04	3.103807560771073215e+06
1.930482964069758398e-04	2.971649659187114798e+06
1.969655484676166015e-04	2.845122163260161411e+06
2.009622024516517747e-04	2.723985112288920674e+06
2.050398646230732109e-04	2.608008774043179117e+06
2.092001736199709284e-04	2.496973210365335923e+06
2.134448011025371966e-04	2.390667857457961421e+06
2.177754524138685152e-04	2.288891128388070501e+06
2.221938672538194097e-04	2.191450028306562454e+06
2.267018203661538573e-04	2.098159789939915296e+06
2.313011222392527912e-04	2.008843520787168527e+06
2.359936198206354790e-04	1.923331870730612427e+06
2.407811972455633858e-04	1.841462705937676365e+06
2.456657765799932910e-04	1.763080803910048911e+06
2.506493185781544491e-04	1.688037562826648820e+06
2.557338234550319851e-04	1.616190708318651654e+06
2.609213316740389868e-04	1.547404034150988329e+06
2.662139247501681583e-04	1.481547138873751741e+06
2.716137260689176387e-04	1.418495188876145054e+06
2.771229017212908236e-04	1.358128640471278224e+06
2.827436613551772334e-04	1.300333086660436820e+06
2.884782590434253804e-04	1.244998971246426925e+06
2.943289941689211826e-04	1.192021413579596207e+06
3.002982123269990313e-04	1.141300003201252781e+06
3.063883062455102281e-04	1.092738609360727482e+06
3.126017167228828907e-04	1.046245199747756124e+06
3.189409335845133316e-04	1.001731662282684701e+06
3.254084966578346628e-04	9.591136420037057251e+05
3.320069967664139609e-04	9.183103785464009270e+05
3.387390767434336671e-04	8.792445541024712147e+05
3.456074324649253612e-04	8.418421449703646358e+05
3.526148139031205818e-04	8.060322843874146929e+05
3.597640262003015243e-04	7.717471236747598741e+05
3.670579307635273470e-04	7.389217069989796728e+05
3.744994463806311687e-04	7.074938464591279626e+05
3.820915503578839792e-04	6.774040051429637242e+05
3.898372796797204380e-04	6.485951844615042210e+05
3.977397321909486401e-04	6.210128117435242748e+05
4.058020678018501551e-04	5.946046214954303578e+05
4.140275098835660044e-04	5.693206079590026056e+05
4.224193458752105207e-04	5.451129181647917721e+05
4.309809294964580704e-04	5.219356798597625457e+05
4.397156814436810248e-04	4.997449856913671247e+05
4.486270908627475011e-04	4.784988245858310256e+05
4.577187167006372846e-04	4.581569647790471208e+05
4.669941890830666765e-04	4.386808889100329834e+05
4.764572107185988288e-04	4.200337209776457166e+05
4.861115583297244760e-04	4.021801561767757521e+05
4.959610841113991104e-04	3.850863942909339094e+05
5.060097172175424905e-04	3.687200751911380794e+05
5.162614652759955295e-04	3.530502184040747234e+05
5.267204159324605098e-04	3.380471608463824959e+05
5.373907384239400530e-04	3.236825072730751708e+05
5.482766851822077313e-04	3.099290697302632034e+05
5.593825934678484102e-04	2.967608193311982322e+05
5.707128870354163854e-04	2.841528361926570651e+05
5.822720778302665351e-04	2.720812622751023737e+05
5.940647677176258499e-04	2.605232558644663368e+05
6.060956502444679334e-04	2.494569486552798480e+05
6.183695124347871096e-04	2.388614038497411238e+05
6.308912366188515345e-04	2.287165767926937842e+05
6.436658022970358521e-04	2.190032765120539989e+05
6.566982880388443425e-04	2.097031302478400758e+05
6.699938734177383285e-04	2.007985477220332541e+05
6.835578409823990639e-04	1.922726864962028631e+05
6.973955782650480013e-04	1.841094245241382159e+05
7.115125798274864535e-04	1.762933244296061166e+05
7.259144493454915094e-04	1.688096072015367099e+05
7.406069017322409499e-04	1.616441231767311692e+05
7.555957653014323252e-04	1.547833255644748861e+05
7.708869839707793454e-04	1.482142445723316632e+05
7.864866195065785010e-04	1.419244629478210409e+05
8.024008538100350311e-04	1.359020922464857576e+05
8.186359912460705341e-04	1.301357504656744422e+05
8.351984610153208571e-04	1.246145404396369995e+05
8.520948195700540385e-04	1.193280291213485325e+05
8.693317530747445877e-04	1.142662278261247702e+05
8.869160799120515484e-04	1.094195734875669004e+05
9.048547532349590725e-04	1.047789099837527756e+05
9.231548635658299879e-04	1.003354697191326559e+05
9.418236416259302820e-04	9.608086108368908754e+04
9.608684603239735222e-04	9.200705159142796765e+04
