# Data associated with arXiv:2110.09653
# 
# Scale-free J-factor angular distribution, J_S(theta), of a nfw0-8 dark matter distribution (see Eq. 8 and the surrounding discussion)
# 
# Published: 3/29/22, Jack Runburg, contact: runburg@hawaii.edu
# 
# 
# -----------------------------------------------------------------
# 
# 	 tilde theta 		 | 	 tilde J s-wave 		 | 	 tilde J p-wave 		 | 	 tilde J d-wave 		 | 	 tilde J sommerfeld 
# 
# -----------------------------------------------------------------
1.000000000000000021e-03	1.354221317925545804e+02	5.887978047824139693e+00	2.058752307965291184e+00	2.700264601024104195e+03
1.021192151037671062e-03	1.336293564534850589e+02	5.871641019244039583e+00	2.055632286670052267e+00	2.633506756409630725e+03
1.042833409340945643e-03	1.318595811859778735e+02	5.855247630369304623e+00	2.052498495440898019e+00	2.568424372416854567e+03
1.064933292458827233e-03	1.301115750728582441e+02	5.838792797238168575e+00	2.049349928217183425e+00	2.504935810559343736e+03
1.087501519637659123e-03	1.283852786130839263e+02	5.822277499730763139e+00	2.046186694485944368e+00	2.443007094344622146e+03
1.110548016095517111e-03	1.266808550482636804e+02	5.805703971232780702e+00	2.043009138749920961e+00	2.382626087181678940e+03
1.134082917387199208e-03	1.249982792112078869e+02	5.789073523329614446e+00	2.039817429888036049e+00	2.323760153731922401e+03
1.158116573861711456e-03	1.233364100471917908e+02	5.772381103775154010e+00	2.036610569796221348e+00	2.266332232212746931e+03
1.182659555214217667e-03	1.216951924511658234e+02	5.755627741614758541e+00	2.033388669139870153e+00	2.210316214213825788e+03
1.207722655134462354e-03	1.200747946472583294e+02	5.738815858041438567e+00	2.030152091904259937e+00	2.155702597435272764e+03
1.233316896053688856e-03	1.184751504390994654e+02	5.721946439603056156e+00	2.026900958088756255e+00	2.102456750974662555e+03
1.259453533992170365e-03	1.168952025454898234e+02	5.705014640422623629e+00	2.023634283023216351e+00	2.050512144117214120e+03
1.286144063509461061e-03	1.153348999961413455e+02	5.688021481312956595e+00	2.020352176495343599e+00	1.999843742510761331e+03
1.313400222759557485e-03	1.137944147607796452e+02	5.670969427880838687e+00	2.017055016580380666e+00	1.950442251259722525e+03
1.341233998653187541e-03	1.122736442605375800e+02	5.653859323269435855e+00	2.013742877214235616e+00	1.902279245333981180e+03
1.369657632129505243e-03	1.107716092893081736e+02	5.636686350553763880e+00	2.010414781290870589e+00	1.855293227526869032e+03
1.398683623539492566e-03	1.092882627665892556e+02	5.619451606754222617e+00	2.007070840270984036e+00	1.809462231059549140e+03
1.428324738143458596e-03	1.078237792928361358e+02	5.602157626846250515e+00	2.003711447907158938e+00	1.764773956864358979e+03
1.458594011725036863e-03	1.063780241782275624e+02	5.584805137820905152e+00	2.000336633082779869e+00	1.721207642358780276e+03
1.489504756324154782e-03	1.049500909537900384e+02	5.567389344802768036e+00	1.996945425281282605e+00	1.678704755687660054e+03
1.521070566091505720e-03	1.035399362021562979e+02	5.549911375575364403e+00	1.993537935520334203e+00	1.637248050959203056e+03
1.553305323267072666e-03	1.021477361484738395e+02	5.532373917127593188e+00	1.990114575720917545e+00	1.596824396642387910e+03
1.586223204285366938e-03	1.007733279128090089e+02	5.514777434350426333e+00	1.986675324200708914e+00	1.557413471128665151e+03
1.619838686010041055e-03	9.941587277414363655e+01	5.497117295595536746e+00	1.983219222146105798e+00	1.518964848503202802e+03
1.654166552100628336e-03	9.807533075988678206e+01	5.479394582911517375e+00	1.979746377292626702e+00	1.481463428922221055e+03
1.689221899514206692e-03	9.675187882008249574e+01	5.461612199765034426e+00	1.976257221345819381e+00	1.444896577570438694e+03
1.725020145144853453e-03	9.544532947674210277e+01	5.443770289165207998e+00	1.972751677660727454e+00	1.409244491177647660e+03
1.761577032603788440e-03	9.415490709262883229e+01	5.425864320509337091e+00	1.969228796709261431e+00	1.374461922814589343e+03
1.798908639143220224e-03	9.288057493272691545e+01	5.407895504058616964e+00	1.965688689162889302e+00	1.340537385579511010e+03
1.837031382726912916e-03	9.162250986719098478e+01	5.389866823907364157e+00	1.962131802029862815e+00	1.307458042144843148e+03
1.875962029250603357e-03	9.038050311070507803e+01	5.371778125517975511e+00	1.958558002709713364e+00	1.275206100482466127e+03
1.915717699915417882e-03	8.915383774556788410e+01	5.353625091003048730e+00	1.954966356890039503e+00	1.243739884069969094e+03
1.956315878757565116e-03	8.794248008172776565e+01	5.335408940027864588e+00	1.951356973334287703e+00	1.213048194819494483e+03
1.997774420337589726e-03	8.674660618968077586e+01	5.317132730075652347e+00	1.947730310202182125e+00	1.183123163096667440e+03
2.040111557592579582e-03	8.556598898966554145e+01	5.298796106920732996e+00	1.944086183008128410e+00	1.153945622131637947e+03
2.083345909854779961e-03	8.439996620229206314e+01	5.280394889742294318e+00	1.940423668095856424e+00	1.125479307899888681e+03
2.127496491040134757e-03	8.324850699847910107e+01	5.261930216100839885e+00	1.936742867179142014e+00	1.097712130095131897e+03
2.172582718010372237e-03	8.211178601255831211e+01	5.243405423132044163e+00	1.933044262495690502e+00	1.070639113384809207e+03
2.218624419112281976e-03	8.098956061953661845e+01	5.224819892206527427e+00	1.929327613019627741e+00	1.044241763997363705e+03
2.265641842897974604e-03	7.988121936588380834e+01	5.206169446493118969e+00	1.925591999897067419e+00	1.018488209273285747e+03
2.313655667029933423e-03	7.878673411123732251e+01	5.187455415264711434e+00	1.921837529073261663e+00	9.933668039533727097e+02
2.362687007374795686e-03	7.770627749055321942e+01	5.168681126183864549e+00	1.918064692244298763e+00	9.688731346403045563e+02
2.412757427289825233e-03	7.663959383989238461e+01	5.149845769506184112e+00	1.914273192570699722e+00	9.449893626926120760e+02
2.463888947106213784e-03	7.558611896945517117e+01	5.130945364634915684e+00	1.910462124628211633e+00	9.216892567021575360e+02
2.516104053813336943e-03	7.454582726257551428e+01	5.111981170019641141e+00	1.906631588750101969e+00	8.989601788127138207e+02
2.569425710948245768e-03	7.351888886030603487e+01	5.092956705082299251e+00	1.902782095117272254e+00	8.768001581516942906e+02
2.623877368694733318e-03	7.250503734700394887e+01	5.073870913161064422e+00	1.898913288528381704e+00	8.551899485575929702e+02
2.679482974196439188e-03	7.150375246268318108e+01	5.054719941445485532e+00	1.895024272246687236e+00	8.341079593578209597e+02
2.736266982088478034e-03	7.051501096408235014e+01	5.035505064479374404e+00	1.891115140055226629e+00	8.135429973689784902e+02
2.794254365252289707e-03	6.953898006392893194e+01	5.016229950228951573e+00	1.887186417957335216e+00	7.934930539993304137e+02
2.853470625798387814e-03	6.857538467061827703e+01	4.996893274241979377e+00	1.883237691139286296e+00	7.739398263114704832e+02
2.913941806281861776e-03	6.762374534752284205e+01	4.977491282645068793e+00	1.879268070768124410e+00	7.548637069986240249e+02
2.975694501155571117e-03	6.668404107620899879e+01	4.958025393371028322e+00	1.875277652915120941e+00	7.362556263398874989e+02
3.038755868466027146e-03	6.575643576418427472e+01	4.938499342210182164e+00	1.871266973685361101e+00	7.181140297138141477e+02
3.103153641797168783e-03	6.484064753385769109e+01	4.918911581094150165e+00	1.867235558768009840e+00	7.004214058872076976e+02
3.168916142467233243e-03	6.393623486398134048e+01	4.899258457599502847e+00	1.863182526610719592e+00	6.831600024896155219e+02
3.236072291984112663e-03	6.304317882414250818e+01	4.879541415386665193e+00	1.859107970385594166e+00	6.663217028528353012e+02
3.304651624764658874e-03	6.216163969477194229e+01	4.859764435608565414e+00	1.855012447748746629e+00	6.499053645141003699e+02
3.374684301123556836e-03	6.129133051843233915e+01	4.839925634397477694e+00	1.850895412660479744e+00	6.338956824233190446e+02
3.446201120537424525e-03	6.043184497879647665e+01	4.820021506866933869e+00	1.846755996117037446e+00	6.182755198607153488e+02
3.519233535190044709e-03	5.958316610477447028e+01	4.800053583211558283e+00	1.842594292261129585e+00	6.030387656491325288e+02
3.593813663804625805e-03	5.874545026922776003e+01	4.780025903915964491e+00	1.838410864750492868e+00	5.881826703765531192e+02
3.669974305769219299e-03	5.791840698391185072e+01	4.759936356175278327e+00	1.834205102191957648e+00	5.736945208626593740e+02
3.747748955561452412e-03	5.710166260461128473e+01	4.739781627821332499e+00	1.829976148410211723e+00	5.595591867260744721e+02
3.827171817478984984e-03	5.629520199762367128e+01	4.719563248774961473e+00	1.825724091672271454e+00	5.457707266643822095e+02
3.908277820682117681e-03	5.549917739444986609e+01	4.699285407580829244e+00	1.821449509829020652e+00	5.323262057461580525e+02
3.991102634555192957e-03	5.471329617094698250e+01	4.678945744583455024e+00	1.817151725450057320e+00	5.192143809933924103e+02
4.075682684393532908e-03	5.393721499189681623e+01	4.658541058995869122e+00	1.812829887200041679e+00	5.064214865236882019e+02
4.162055167422817371e-03	5.317092044554668462e+01	4.638073030963242083e+00	1.808484082861253395e+00	4.939430800183567953e+02
4.250258069157961290e-03	5.241456042754477807e+01	4.617545878398222392e+00	1.804114898585472249e+00	4.817756967980086529e+02
4.340330180108637088e-03	5.166784143371789639e+01	4.596957039269240930e+00	1.799721594105208933e+00	4.699089661263005837e+02
4.432311112838861061e-03	5.093044823253473652e+01	4.576303448295091059e+00	1.795303327405683991e+00	4.583303657488283989e+02
4.526241319388085715e-03	5.020236902699031845e+01	4.555586860145876216e+00	1.790860182674902878e+00	4.470364468494569223e+02
4.622162109061505458e-03	4.948374721657221187e+01	4.534811642652313068e+00	1.786392755962351364e+00	4.360243399186244915e+02
4.720115666597336779e-03	4.877428954445469600e+01	4.513974969094929790e+00	1.781900244430017599e+00	4.252838100187049122e+02
4.820145070719144588e-03	4.807370682735813716e+01	4.493073938753226138e+00	1.777381815335508319e+00	4.148042635763019916e+02
4.922294313081310678e-03	4.738198877900360628e+01	4.472110277532955536e+00	1.772837536882968301e+00	4.045815002040579884e+02
5.026608317615998724e-03	4.669927417775605250e+01	4.451088621290772096e+00	1.768268031029810228e+00	3.946139837944858755e+02
5.133132960290130720e-03	4.602527102251801949e+01	4.430005869433734311e+00	1.763672418342619341e+00	3.848923907821613284e+02
5.241915089281041530e-03	4.535971425829952608e+01	4.408859211675626888e+00	1.759049872104327505e+00	3.754068583809254278e+02
5.353002545579732367e-03	4.470259501592973095e+01	4.387650508126700544e+00	1.754400467380780260e+00	3.661532541168973580e+02
5.466444184030696055e-03	4.405404735399308436e+01	4.366384459282176778e+00	1.749724825637012593e+00	3.571309820998524174e+02
5.582289894817666839e-03	4.341378142646559013e+01	4.345057742613235519e+00	1.745021997600029851e+00	3.483305113506101520e+02
5.700590625404708227e-03	4.278155452063938213e+01	4.323667788110880927e+00	1.740291168211718587e+00	3.397442713015985305e+02
5.821398402942216249e-03	4.215735909207862875e+01	4.302216463063218477e+00	1.735532402527359741e+00	3.313677716881616107e+02
5.944766357147824969e-03	4.154132440721888742e+01	4.280708520255923411e+00	1.730746326910292954e+00	3.232004695136207602e+02
6.070748743672167193e-03	4.093316357707184494e+01	4.259140497840454564e+00	1.725931929607926962e+00	3.152335145564277923e+02
6.199400967959818945e-03	4.033265456338016719e+01	4.237509888701400662e+00	1.721088399425198867e+00	3.074603762463763701e+02
6.330779609615908021e-03	3.973979106142778761e+01	4.215818827727248141e+00	1.716215814701181452e+00	2.998771917121848105e+02
6.464942447289089879e-03	3.915469749879110850e+01	4.194072120709842366e+00	1.711314806258934507e+00	2.924836939903535153e+02
6.601948484081890736e-03	3.857709065031202300e+01	4.172265965563209278e+00	1.706384286297548236e+00	2.852709948031297245e+02
6.741857973499477616e-03	3.800676759896609269e+01	4.150398141984860345e+00	1.701423463040550921e+00	2.782334104594652331e+02
6.884732445948405985e-03	3.744372319942764449e+01	4.128470846799363159e+00	1.696432411522232675e+00	2.713678884856719833e+02
7.030634735796891313e-03	3.688807701486602753e+01	4.106488983863659570e+00	1.691411761303956984e+00	2.646739915873068298e+02
7.179629009008595825e-03	3.633955010649540185e+01	4.084448488106548147e+00	1.686360327682007165e+00	2.581439317556182118e+02
7.331780791361950343e-03	3.579795723250693840e+01	4.062347012030420146e+00	1.681277278344368797e+00	2.517720896775979611e+02
7.487156997267587974e-03	3.526329433062717555e+01	4.040186785532550395e+00	1.676162680700525653e+00	2.455558510659140552e+02
7.645825959196438613e-03	3.473567609277271373e+01	4.017973065637282737e+00	1.671017204430973901e+00	2.394948034928411289e+02
7.807857457731475631e-03	3.421482841218180937e+01	3.995701454269316333e+00	1.665839579091843436e+00	2.335821013316713106e+02
7.973322752256328111e-03	3.370058237453530836e+01	3.973370113590989572e+00	1.660629041406641582e+00	2.278125844475586064e+02
8.142294612294233985e-03	3.319293493069618251e+01	3.950981259927067502e+00	1.655385640810810299e+00	2.221841970651387328e+02
8.314847349511189298e-03	3.269199590915343379e+01	3.928540217866624218e+00	1.650110053079054673e+00	2.166957072515358504e+02
8.491056850397209546e-03	3.219749651123838419e+01	3.906042465457336910e+00	1.644800944124013231e+00	2.113415210711313250e+02
8.671000609640279119e-03	3.170928289647804021e+01	3.883486293241405818e+00	1.639457552202485680e+00	2.061169354113369820e+02
8.854757764207504128e-03	3.122735295898410257e+01	3.860874086193885724e+00	1.634079937234278468e+00	2.010201747902848126e+02
9.042409128148579806e-03	3.075181169189666974e+01	3.838211233620173246e+00	1.628668774822738419e+00	1.960501368938230087e+02
9.234037228136720080e-03	3.028239601333567066e+01	3.815492973424842837e+00	1.623222654711789170e+00	1.912013964957334622e+02
9.429726339762870002e-03	2.981896598707663415e+01	3.792717739422025502e+00	1.617740822274647439e+00	1.864697793615254113e+02
9.629562524599030379e-03	2.936152039091449595e+01	3.769888258956763050e+00	1.612223370454284099e+00	1.818540403200447315e+02
9.833633668047030499e-03	2.891015941870250572e+01	3.747009832969849352e+00	1.606670956335418676e+00	1.773530382870442565e+02
1.004202951798940403e-02	2.846462605500973098e+01	3.724077574771137655e+00	1.601082119964847061e+00	1.729618018809730415e+02
1.025484172425938229e-02	2.802479318430286170e+01	3.701090187587348534e+00	1.595456124996471381e+00	1.686766976139494716e+02
1.047216387894729824e-02	2.759066040534963449e+01	3.678050155751869443e+00	1.589793005470878429e+00	1.644959808849158378e+02
1.069409155756119272e-02	2.716232316525519863e+01	3.654963265272270778e+00	1.584093487820675383e+00	1.604193861864297332e+02
1.092072236105970547e-02	2.673953081118911967e+01	3.631824414494477793e+00	1.578356025752284175e+00	1.564420885695465699e+02
1.115215595877575537e-02	2.632216803554430840e+01	3.608632413405771455e+00	1.572579897188581377e+00	1.525610293088367939e+02
1.138849413224978825e-02	2.591023520360689147e+01	3.585389868508115807e+00	1.566765169466130869e+00	1.487743274245106022e+02
1.162984081999205582e-02	2.550382307479508270e+01	3.562102970520101053e+00	1.560912646956074568e+00	1.450819498426764653e+02
1.187630216319339981e-02	2.510268760641019981e+01	3.538766009677664304e+00	1.555020635485253377e+00	1.414791375682580963e+02
1.212798655240480798e-02	2.470672435941833811e+01	3.515378265467273611e+00	1.549088449599140382e+00	1.379635697213280139e+02
1.238500467520621366e-02	2.431593441257141208e+01	3.491942542183612552e+00	1.543116172350708304e+00	1.345335601336499849e+02
1.264746956488544717e-02	2.393040390723550814e+01	3.468464815654110023e+00	1.537104543124462319e+00	1.311890065743986611e+02
1.291549665014883955e-02	2.354989561152500599e+01	3.444939328190754324e+00	1.531051824462965616e+00	1.279254027570731580e+02
1.318920380588532899e-02	2.317431508148818864e+01	3.421365624276968109e+00	1.524957386493139611e+00	1.247406365229949188e+02
1.346871140500627631e-02	2.280366405951725639e+01	3.397746590273791334e+00	1.518821305299457247e+00	1.216333547040810998e+02
1.375414237138396570e-02	2.243802414474461315e+01	3.374088309033091093e+00	1.512644337215298895e+00	1.186034763846008673e+02
1.404562223391196511e-02	2.207716507880817147e+01	3.350384739976980164e+00	1.506424604669823974e+00	1.156470520978383831e+02
1.434327918171109106e-02	2.172100160012587011e+01	3.326634895404341652e+00	1.500161327251296361e+00	1.127618634173933003e+02
1.464724412050539583e-02	2.136953606597322164e+01	3.302841874031640756e+00	1.493854602453002389e+00	1.099469135230239942e+02
1.495765073019278586e-02	2.102284561938280305e+01	3.279011987869172806e+00	1.487505237940647707e+00	1.072017738624157914e+02
1.527463552363575450e-02	2.068070709664678830e+01	3.255139293616878149e+00	1.481111399133960393e+00	1.045232073089320721e+02
1.559833790669801906e-02	2.034304366517142881e+01	3.231223560668830874e+00	1.474672433353485523e+00	1.019091729394663446e+02
1.592890023955338338e-02	2.000985825232667992e+01	3.207267969634497451e+00	1.468188453238608249e+00	9.935891014680723288e+01
1.626646789929399317e-02	1.968122363214176218e+01	3.183278905095829003e+00	1.461660256570862071e+00	9.687181241015863975e+01
1.661118934386526108e-02	1.935692382801142131e+01	3.159250113946058480e+00	1.455085908966942343e+00	9.444485011201996372e+01
1.696321617735579643e-02	1.903688973376701910e+01	3.135181693124589497e+00	1.448464858856136406e+00	9.207632131477951987e+01
1.732270321667098503e-02	1.872112480538193680e+01	3.111077281315638654e+00	1.441797319804812405e+00	8.976552061372612457e+01
1.768980855961942850e-02	1.840969753841489620e+01	3.086943244344785953e+00	1.435084121578448002e+00	8.751206327889613590e+01
1.806469365444235767e-02	1.810239920537878433e+01	3.062773257886061362e+00	1.428323274891603045e+00	8.531305253503940378e+01
1.844752337081655841e-02	1.779916777471605727e+01	3.038567760913056137e+00	1.421514288995222586e+00	8.316704963910844128e+01
1.883846607236187159e-02	1.750000718861925364e+01	3.014330208677011846e+00	1.414657313706981112e+00	8.107313949456670343e+01
1.923769369068539445e-02	1.720498176560499459e+01	2.990067163998973321e+00	1.407753210900585028e+00	7.903120561695151025e+01
1.964538180099485026e-02	1.691389005520126076e+01	2.965772218711509645e+00	1.400799950500322133e+00	7.703852382778497088e+01
2.006170969931423895e-02	1.662667649592410513e+01	2.941446239951763797e+00	1.393797153484473972e+00	7.509399796629730872e+01
2.048686048133601528e-02	1.634334547889837808e+01	2.917092775913785019e+00	1.386745030419723967e+00	7.319667956499311856e+01
2.092102112294418406e-02	1.606395724191740371e+01	2.892717590037923614e+00	1.379644188384665515e+00	7.134645599293014584e+01
2.136438256244391209e-02	1.578831762168023900e+01	2.868313786532561860e+00	1.372492383729580157e+00	6.954076684244961370e+01
2.181713978453380873e-02	1.551637696471928329e+01	2.843882425789891144e+00	1.365289261266515508e+00	6.777857879417904030e+01
2.227949190605761978e-02	1.524814007295505114e+01	2.819427226171553613e+00	1.358035059608811990e+00	6.605921907098540657e+01
2.275164226357336353e-02	1.498366320408596764e+01	2.794955053902180353e+00	1.350730730004612301e+00	6.438252462654460828e+01
2.323379850277806913e-02	1.472275946782945510e+01	2.770459317052525794e+00	1.343374149272121398e+00	6.274628279128853592e+01
2.372617266982774559e-02	1.446538459609052119e+01	2.745941250139385836e+00	1.335965021680030951e+00	6.114939888168406412e+01
2.422898130459259780e-02	1.421154376660031460e+01	2.721404955402960901e+00	1.328503772236549807e+00	5.959139026898467506e+01
2.474244553588843265e-02	1.396128935778871671e+01	2.696857227885229857e+00	1.320991317517391073e+00	5.807193092198781414e+01
2.526679117872631872e-02	1.371444171856975736e+01	2.672291576253079892e+00	1.313425560592541119e+00	5.658913369624021072e+01
