# Data associated with arXiv:2110.09653
# 
# Scale-free velocity distribution, f(E), of a einasto0-17 dark matter distribution (see Eq. 13 and the surrounding discussion)
# 
# Published: 3/29/22, Jack Runburg, contact: runburg@hawaii.edu
# 
# 
# -----------------------------------------------------------------
# 
# 	 tilde E 		 | 		 tilde f
# 
# -----------------------------------------------------------------
5.082169369670902160e-07	6.189534590534620361e+11
5.234040575505257168e-07	5.955807263772644043e+11
5.390388434587835637e-07	5.721329295942550049e+11
5.551342860597148218e-07	5.487284254453810425e+11
5.717037470335378500e-07	5.257386585742114868e+11
5.887609687107370380e-07	5.027811410638354492e+11
6.063200846915983045e-07	4.804731385835590820e+11
6.243956307547638841e-07	4.591575670961450806e+11
6.430025560625079425e-07	4.387901657154350586e+11
6.621562346705175729e-07	4.193286521102200317e+11
6.818724773502261961e-07	4.007326338688470459e+11
7.021675437319654549e-07	3.829635238359106445e+11
7.230581547773188977e-07	3.659844592684351196e+11
7.445615055894141742e-07	3.497602245776969604e+11
7.666952785699530384e-07	3.342571775910894775e+11
7.894776569321617369e-07	3.194431791004320068e+11
8.129273385789345713e-07	3.052875255359205322e+11
8.370635503557603156e-07	2.917608847325979614e+11
8.619060626882789903e-07	2.788352345194267578e+11
8.874752046144494755e-07	2.664838040850815125e+11
9.137918792217358801e-07	2.546810179756239929e+11
9.408775794997835825e-07	2.434024425995722046e+11
9.687544046195172806e-07	2.326247351304229126e+11
9.974450766496937590e-07	2.223255947013751526e+11
1.026972957722320604e-06	2.124837158070615234e+11
1.057362067658652575e-06	2.030787437392942200e+11
1.088637102067637442e-06	1.940912321008152771e+11
1.120823450929182936e-06	1.855026021546332703e+11
1.153947217674695567e-06	1.772951040251368408e+11
1.188035238777891157e-06	1.694517796489758606e+11
1.223115103868946359e-06	1.619564273516418762e+11
1.259215176385651500e-06	1.547935680450318909e+11
1.296364614775318854e-06	1.479484129173610840e+11
1.334593394261689841e-06	1.414068325936961975e+11
1.373932329191454380e-06	1.351553276447770386e+11
1.414413095975171167e-06	1.291810004461348267e+11
1.456068256638030070e-06	1.234715282864942627e+11
1.498931282995954820e-06	1.180151376772428741e+11
1.543036581473254583e-06	1.128005798179073181e+11
1.588419518578127492e-06	1.078171071581391602e+11
1.635116447052920788e-06	1.030544510095157471e+11
1.683164732716455412e-06	9.850280015529446411e+10
1.732602782015952671e-06	9.415278042521235657e+10
1.783470070306858236e-06	8.999543517729673767e+10
1.835807170878920803e-06	8.602220666075424194e+10
1.889655784747723417e-06	8.222491820382789612e+10
1.945058771230979813e-06	7.859575885351498413e+10
2.002060179329599085e-06	7.512726045909490967e+10
2.060705279934010322e-06	7.181229075336453247e+10
2.121040598876501850e-06	6.864403780411917877e+10
2.183113950851212526e-06	6.561598832519029999e+10
2.246974474223498312e-06	6.272192169853519440e+10
2.312672666751364869e-06	5.995588887432138062e+10
2.380260422241815733e-06	5.731221442045594025e+10
2.449791068165733039e-06	5.478546666472060394e+10
2.521319404255540082e-06	5.237046039394110870e+10
2.594901742110130054e-06	5.006223982572432709e+10
2.670595945832651499e-06	4.785606953606223297e+10
2.748461473726775370e-06	4.574742371379566193e+10
2.828559421078257780e-06	4.373198154137018585e+10
2.910952564048736198e-06	4.180560866490503693e+10
2.995705404709668430e-06	3.996435818849849701e+10
3.082884217244980542e-06	3.820445772806401825e+10
3.172557095351338915e-06	3.652230253947668457e+10
3.264794000866196967e-06	3.491444806931378174e+10
3.359666813653833620e-06	3.337760266941894531e+10
3.457249382780989682e-06	3.190862111590434647e+10
3.557617579013846833e-06	3.050449774657447815e+10
3.660849348669202647e-06	2.916236042796438217e+10
3.767024768853529852e-06	2.787946456310693359e+10
3.876226104123911686e-06	2.665318741470339966e+10
3.988537864606392727e-06	2.548102269246154404e+10
4.104046865607267642e-06	2.436057535091769791e+10
4.222842288754529030e-06	2.328955664387156677e+10
4.345015744706781496e-06	2.226577945939216614e+10
4.470661337468273765e-06	2.128715359384163284e+10
4.599875730349653131e-06	2.035168174134891129e+10
4.732758213614395096e-06	1.945745511927666473e+10
4.869410773852647429e-06	1.860264962881430435e+10
5.009938165124257557e-06	1.778552207458189774e+10
5.154447981914658817e-06	1.700440656675707626e+10
5.303050733947431764e-06	1.625771108299285316e+10
5.455859922898925389e-06	1.554391419003264999e+10
5.612992121061382772e-06	1.486156188590960884e+10
5.774567052001462897e-06	1.420926463091369057e+10
5.940707673263126469e-06	1.358569446224888992e+10
6.111540261163818811e-06	1.298958226190441704e+10
6.287194497735187719e-06	1.241971514833398438e+10
6.467803559859669017e-06	1.187493397158436394e+10
6.653504210656104667e-06	1.135413092532654190e+10
6.844436893168817010e-06	1.085624727154246330e+10
7.040745826415009078e-06	1.038027116231529808e+10
7.242579103847853744e-06	9.925235541205354691e+09
7.450088794292502337e-06	9.490216184522367477e+09
7.663431045414989431e-06	9.074329770680797577e+09
7.882766189784046098e-06	8.676732078679368973e+09
8.108258853588006535e-06	8.296616250958794594e+09
8.340078068070437195e-06	7.933211134910960197e+09
8.578397383748555450e-06	7.585779695184775352e+09
8.823394987481546499e-06	7.253617502098517418e+09
9.075253822455523042e-06	6.936051290439421654e+09
9.334161711155233238e-06	6.632437568095597267e+09
9.600311481392542856e-06	6.342161298100923538e+09
9.873901095464223052e-06	6.064634641695965767e+09
1.015513378251332517e-05	5.799295746550028801e+09
1.044421817416885767e-05	5.545607598009748459e+09
1.074136844354193778e-05	5.303056913945585251e+09
1.104680444765631796e-05	5.071153099449032784e+09
1.136075187339488840e-05	4.849427233895888329e+09
1.168344238704374369e-05	4.637431115407491684e+09
1.201511378751831862e-05	4.434736341818066597e+09
1.235601016335803793e-05	4.240933432384245872e+09
1.270638205357637545e-05	4.055630989249031544e+09
1.306648661245739726e-05	3.878454898922191143e+09
1.343658777838925203e-05	3.709047565042424679e+09
1.381695644682959656e-05	3.547067176825161457e+09
1.420787064749773762e-05	3.392187010200250626e+09
1.460961572589165976e-05	3.244094760934907913e+09
1.502248452923039026e-05	3.102491905991418362e+09
1.544677759692261338e-05	2.967093092222029686e+09
1.588280335566724872e-05	2.837625556636882305e+09
1.633087831929089527e-05	2.713828563290709019e+09
1.679132729343249446e-05	2.595452880176132202e+09
1.726448358518498745e-05	2.482260262771120071e+09
1.775068921780782326e-05	2.374022970477170944e+09
1.825029515062681875e-05	2.270523302749821186e+09
1.876366150423811169e-05	2.171553154927198887e+09
1.929115779113881678e-05	2.076913593557967424e+09
1.983316315190572721e-05	1.986414451367773533e+09
2.039006659704985518e-05	1.899873939142455101e+09
2.096226725467374106e-05	1.817118275731398106e+09
2.155017462406331254e-05	1.737981335396588564e+09
2.215420883534892460e-05	1.662304307517594814e+09
2.277480091537053633e-05	1.589935373861235857e+09
2.341239305988872306e-05	1.520729402137673378e+09
2.406743891228155870e-05	1.454547648069818974e+09
2.474040384887519922e-05	1.391257472897150517e+09
2.543176527105387732e-05	1.330732076596052408e+09
2.614201290430327843e-05	1.272850237628032684e+09
2.687164910433936096e-05	1.217496068020945311e+09
2.762118917048190692e-05	1.164558777028879642e+09
2.839116166643306150e-05	1.113932447186282158e+09
2.918210874862411214e-05	1.065515818792360067e+09
2.999458650229983896e-05	1.019212083993124366e+09
3.082916528550874209e-05	9.749286912115556002e+08
3.168643008117537959e-05	9.325771572026695013e+08
3.256698085743134092e-05	8.920728868329182863e+08
3.347143293638645315e-05	8.533350030387413502e+08
3.440041737152532366e-05	8.162861817754230499e+08
3.535458133391661354e-05	7.808524958298556805e+08
3.633458850742947633e-05	7.469632654323853254e+08
3.734111949315054328e-05	7.145509142724821568e+08
3.837487222320353663e-05	6.835508336388161182e+08
3.943656238417433149e-05	6.539012517339053154e+08
4.052692385034943644e-05	6.255431073031994104e+08
4.164670912698026107e-05	5.984199318997678757e+08
4.279668980378800502e-05	5.724777349625167847e+08
4.397765701893161308e-05	5.476648949431082010e+08
4.519042193366056969e-05	5.239320547047728896e+08
4.643581621788355618e-05	5.012320221242258549e+08
4.771469254688517968e-05	4.795196747128405571e+08
4.902792510942851885e-05	4.587518685658997893e+08
5.037641012748652404e-05	4.388873512581033707e+08
5.176106638784713201e-05	4.198866786647865176e+08
5.318283578584720130e-05	4.017121354303913713e+08
5.464268388148695900e-05	3.843276591378309727e+08
5.614160046819104241e-05	3.676987670193378925e+08
5.768060015447763170e-05	3.517924872224896550e+08
5.926072295881023406e-05	3.365772919975838065e+08
6.088303491790662597e-05	3.220230342865268588e+08
6.254862870878533489e-05	3.081008871273626685e+08
6.425862428483951512e-05	2.947832855014218092e+08
6.601416952622466403e-05	2.820438710893305540e+08
6.781644090486361976e-05	2.698574390486084819e+08
6.966664416436534253e-05	2.581998874604143500e+08
7.156601501517005507e-05	2.470481691259816587e+08
7.351581984523284340e-05	2.363802446899531186e+08
7.551735644656348389e-05	2.261750389960311353e+08
7.757195475795216201e-05	2.164123982859000266e+08
7.968097762420592312e-05	2.070730502149538100e+08
8.184582157223979149e-05	1.981385648026800454e+08
8.406791760435879568e-05	1.895913175985021889e+08
8.634873200908535300e-05	1.814144544995581508e+08
8.868976718988432471e-05	1.735918576338596344e+08
9.109256251214806861e-05	1.661081134331794679e+08
9.355869516881060578e-05	1.589484814876279533e+08
9.608978106496164433e-05	1.520988651724699140e+08
9.868747572184754743e-05	1.455457833809181750e+08
1.013534752006394618e-04	1.392763435906685591e+08
1.040895170463687993e-04	1.332782159852523357e+08
1.068973812524276620e-04	1.275396088771726042e+08
1.097788912460431038e-04	1.220492451785760075e+08
1.127359148951409399e-04	1.167963396507349163e+08
1.157703655370174414e-04	1.117705776800958067e+08
1.188842030292543877e-04	1.069620944154726714e+08
1.220794348233057605e-04	1.023614551802136451e+08
1.253581170612060806e-04	9.795963663182601333e+07
1.287223556958476997e-04	9.374800880682551861e+07
1.321743076352862082e-04	8.971831778710421920e+07
1.357161819115415482e-04	8.586266937888358533e+07
1.393502408743634501e-04	8.217351329612620175e+07
1.430788014104510911e-04	7.864362820257845521e+07
1.469042361886057030e-04	7.526610715736594796e+07
1.508289749313218033e-04	7.203434413450989127e+07
1.548555057133171094e-04	6.894202059490838647e+07
1.589863762875162408e-04	6.598309310861934721e+07
1.632241954390097646e-04	6.315178124858680367e+07
1.675716343675135280e-04	6.044255613226179034e+07
1.720314280988764777e-04	5.785012939415117353e+07
1.766063769261693903e-04	5.536944274880582839e+07
1.812993478809216607e-04	5.299565787843443453e+07
1.861132762350611771e-04	5.072414685307955742e+07
1.910511670341335383e-04	4.855048296200722456e+07
1.961160966623810115e-04	4.647043188564171642e+07
2.013112144402654554e-04	4.447994335668547451e+07
2.066397442550449882e-04	4.257514308056896180e+07
2.121049862249974342e-04	4.075232509319291264e+07
2.177103183979194403e-04	3.900794440117909759e+07
2.234591984845186053e-04	3.733860995978096128e+07
2.293551656273382761e-04	3.574107797028563172e+07
2.354018422058573189e-04	3.421224544998838007e+07
2.416029356784136237e-04	3.274914411310619488e+07
2.479622404616272898e-04	3.134893446583671495e+07
2.544836398479772372e-04	3.000890024529183283e+07
2.611711079622296345e-04	2.872644298915323988e+07
2.680287117573998878e-04	2.749907696316380426e+07
2.750606130509516229e-04	2.632442420880083367e+07
2.822710706019476907e-04	2.520020987534291297e+07
2.896644422298612614e-04	2.412425772085836157e+07
2.972451869757985229e-04	2.309448581751004606e+07
3.050178673068493153e-04	2.210890245837894827e+07
3.129871513643338581e-04	2.116560222475089133e+07
3.211578152566980080e-04	2.026276222853590921e+07
3.295347453978282929e-04	1.939863849659692124e+07
3.381229408915700048e-04	1.857156262935361639e+07
3.469275159632291940e-04	1.777993841128905118e+07
3.559537024388796309e-04	1.702223871567463875e+07
3.652068522732559563e-04	1.629700252164330706e+07
3.746924401270866688e-04	1.560283199463363737e+07
3.844160659946703408e-04	1.493838978438986465e+07
3.943834578825537534e-04	1.430239637159196101e+07
4.046004745401610950e-04	1.369362756505838409e+07
4.150731082432244034e-04	1.311091210279496573e+07
4.258074876309135104e-04	1.255312934330177866e+07
4.368098805975122526e-04	1.201920707413146831e+07
4.480866972395758548e-04	1.150811941112397797e+07
4.596444928594330538e-04	1.101888478575244918e+07
4.714899710259759470e-04	1.055056402400220186e+07
4.836299866936526323e-04	1.010225850315404497e+07
4.960715493805828566e-04	9.673108398137973621e+06
5.088218264067761402e-04	9.262290998613871634e+06
5.218881461933614274e-04	8.869019097723778337e+06
5.352780016238424792e-04	8.492539448240278289e+06
5.489990534683108266e-04	8.132131304692791775e+06
5.630591338716331570e-04	7.787105001573972404e+06
5.774662499065948791e-04	7.456800614375874400e+06
5.922285871930069818e-04	7.140586665650677867e+06
6.073545135837998907e-04	6.837858897951611318e+06
6.228525829191107867e-04	6.548039097837464884e+06
6.387315388494348200e-04	6.270573957987878472e+06
6.550003187288453831e-04	6.004934009331574664e+06
6.716680575793681877e-04	5.750612584092583507e+06
6.887440921275640726e-04	5.507124832477809861e+06
7.062379649143931456e-04	5.274006774278362282e+06
7.241594284794511827e-04	5.050814403086944483e+06
7.425184496206539220e-04	4.837122815058886074e+06
7.613252137305088563e-04	4.632525392993330024e+06
7.805901292100355261e-04	4.436633002597435378e+06
8.003238319614997204e-04	4.249073248506562784e+06
8.205371899610651963e-04	4.069489745663516223e+06
8.412413079125087003e-04	3.897541428941927385e+06
8.624475319831506918e-04	3.732901891921586357e+06
8.841674546231302048e-04	3.575258752874365542e+06
9.064129194692382638e-04	3.424313048979232088e+06
9.291960263344160647e-04	3.279778659957794938e+06
9.525291362841476232e-04	3.141381749910004437e+06
9.764248768009092631e-04	3.008860240268052556e+06
1.000896147037871713e-03	2.881963301383513492e+06
1.025956123163056536e-03	2.760450866889387369e+06
1.051618263795161970e-03	2.644093171885464340e+06
1.077896315532245576e-03	2.532670304405301809e+06
1.104804318574522260e-03	2.425971787471568678e+06
1.132356612442466260e-03	2.323796164767632727e+06
1.160567841791478472e-03	2.225950618122852873e+06
1.189452962324327127e-03	2.132250590405469295e+06
1.219027246802630981e-03	2.042519436332542682e+06
1.249306291158619941e-03	1.956588074953112286e+06
1.280306020708407580e-03	1.874294667431889335e+06
1.312042696468065754e-03	1.795484304995191516e+06
1.344532921573729283e-03	1.720008710434976500e+06
1.377793647807012446e-03	1.647725953779626405e+06
1.411842182226984762e-03	1.578500176495217951e+06
1.446696193909989981e-03	1.512201333996969275e+06
1.482373720798568556e-03	1.448704943061293336e+06
1.518893176660762300e-03	1.387891843824721174e+06
1.556273358161055012e-03	1.329647970488567138e+06
1.594533452044248362e-03	1.273864133906489005e+06
1.633693042433529861e-03	1.220435809735448100e+06
1.673772118244009656e-03	1.169262938696485944e+06
1.714791080712995981e-03	1.120249737362357555e+06
1.756770751048282973e-03	1.073304511406827252e+06
1.799732378195731527e-03	1.028339481106031453e+06
1.843697646727373522e-03	9.852706142273237929e+05
1.888688684851351106e-03	9.440174640433909371e+05
1.934728072544917698e-03	9.045030162127994699e+05
1.981838849811765318e-03	8.666535415247532073e+05
2.030044525064934619e-03	8.303984546865271404e+05
2.079369083636542319e-03	7.956701798077599378e+05
2.129836996415589764e-03	7.624040217513294192e+05
2.181473228615031599e-03	7.305380416538352147e+05
2.234303248669404929e-03	7.000129410723343026e+05
2.288353037264168229e-03	6.707719446184370900e+05
2.343649096497994223e-03	6.427606973666172707e+05
2.400218459179205913e-03	6.159271570933536859e+05
2.458088698257531422e-03	5.902214969011557987e+05
2.517287936392387238e-03	5.655960110875378596e+05
2.577844855658785721e-03	5.420050221398493741e+05
2.639788707392109416e-03	5.194047962201740011e+05
2.703149322172795996e-03	4.977534590380967129e+05
2.767957119952135607e-03	4.770109166930263164e+05
2.834243120320207969e-03	4.571387791278758086e+05
2.902038952917126297e-03	4.381002876272167196e+05
2.971376867988608471e-03	4.198602453096807003e+05
3.042289747086915439e-03	4.023849498660572572e+05
3.114811113918250149e-03	3.856421301571372896e+05
3.188975145337574150e-03	3.696008850217955187e+05
3.264816682491854076e-03	3.542316248129536980e+05
3.342371242112708585e-03	3.395060152386810514e+05
3.421675027959378626e-03	3.253969240137371817e+05
3.502764942412966466e-03	3.118783695287882001e+05
3.585678598222835113e-03	2.989254717405956471e+05
3.670454330405979997e-03	2.865144052568026236e+05
3.757131208300292739e-03	2.746223542785964091e+05
3.845749047772469009e-03	2.632274697208264261e+05
3.936348423581339379e-03	2.523088278423966549e+05
4.028970681897386420e-03	2.418463910867757804e+05
4.123657952979146307e-03	2.318209700115825108e+05
4.220453164007187917e-03	2.222141874736337049e+05
4.319400052076250579e-03	2.130084439101356838e+05
4.420543177346233921e-03	2.041868842517659359e+05
4.523927936352525533e-03	1.957333663623463071e+05
4.629600575476231980e-03	1.876324304405345174e+05
4.737608204574767640e-03	1.798692690598170739e+05
4.847998811185773131e-03	1.724297024166662595e+05
4.960821272891605821e-03	1.653001510664588423e+05
5.076125373731451944e-03	1.584676058177967789e+05
5.193961816996837781e-03	1.519196072071188537e+05
5.314382240028007326e-03	1.456442233800896502e+05
5.437439228814329104e-03	1.396300255084431847e+05
5.563186332757165051e-03	1.338660663666975161e+05
5.691678079595271708e-03	1.283418614824627584e+05
5.822969990492805718e-03	1.230473677882249322e+05
5.957118595289833882e-03	1.179729659564970643e+05
6.094181447915378996e-03	1.131094419963939145e+05
6.234217141962801120e-03	1.084479701895069011e+05
6.377285326427293080e-03	1.039800966529455618e+05
6.523446721605283792e-03	9.969772347504581558e+04
6.672763135155360820e-03	9.559309376464720117e+04
6.825297478320394712e-03	9.165877709358431457e+04
6.981113782310246693e-03	8.788765574704224127e+04
7.140277214844703221e-03	8.427291143055309658e+04
7.302854096855905357e-03	8.080801265318517108e+04
7.468911919349611149e-03	7.748670250787373516e+04
7.638519360424531231e-03	7.430298713774270436e+04
7.811746302448902349e-03	7.125112455848876562e+04
7.988663849393350808e-03	6.832561405247794755e+04
8.169344344319097798e-03	6.552118590047074395e+04
8.353861387020263679e-03	6.283279167001189489e+04
8.542289851819309318e-03	6.025559487667709618e+04
8.734705905514183327e-03	5.778496195470391831e+04
8.931187025475836871e-03	5.541645380395612301e+04
9.131812017894742547e-03	5.314581748536386294e+04
9.336661036174736389e-03	5.096897839126673352e+04
9.545815599472717156e-03	4.888203273539055954e+04
9.759358611382195833e-03	4.688124030792644044e+04
9.977374378759151438e-03	4.496301763053169998e+04
1.019994863068802993e-02	4.312393129253497318e+04
1.042716853758591383e-02	4.136069166923757439e+04
1.065912273044267861e-02	3.967014684380991821e+04
1.089590132019488400e-02	3.804927674906299944e+04
1.113759591723104819e-02	3.649518784966564999e+04
1.138429965102564709e-02	3.500510737633284589e+04
1.163610718989944656e-02	3.357637858426544699e+04
1.189311476130527900e-02	3.220645586784094121e+04
1.215542017028379412e-02	3.089290011383180899e+04
1.242312282182791300e-02	2.963337385641853325e+04
1.269632373967393389e-02	2.842563727533653582e+04
1.297512558699956582e-02	2.726754419858026813e+04
1.325963268687984850e-02	2.615703799712367982e+04
1.354995104284761887e-02	2.509214782418330287e+04
1.384618835955483962e-02	2.407098510618406362e+04
