# Data associated with arXiv:2110.09653
# 
# Scale-free gravitational potential, Phi(r), of a einasto0-17 dark matter distribution (see Eq. 12 and the surrounding discussion)
# 
# Published: 3/29/22, Jack Runburg, contact: runburg@hawaii.edu
# 
# 
# -----------------------------------------------------------------
# 
# 	 tilde r 		 | 		 tilde Phi
# 
# -----------------------------------------------------------------
1.000000000000000082e-05	5.082169369670902160e-07
1.016902569856036418e-05	5.234040575505257168e-07
1.034090836579813217e-05	5.390388434587835637e-07
1.051569629182590727e-05	5.551342860597148218e-07
1.069343858298338107e-05	5.717037470335378500e-07
1.087418517563349352e-05	5.887609687107370380e-07
1.105798685019213608e-05	6.063200846915983045e-07
1.124489524539464294e-05	6.243956307547638841e-07
1.143496287280373749e-05	6.430025560625079425e-07
1.162824313156251011e-05	6.621562346705175729e-07
1.182479032339672186e-05	6.818724773502261961e-07
1.202465966787094358e-05	7.021675437319654549e-07
1.222790731790219642e-05	7.230581547773188977e-07
1.243459037553620304e-05	7.445615055894141742e-07
1.264476690798990365e-05	7.666952785699530384e-07
1.285849596396550032e-05	7.894776569321617369e-07
1.307583759024001738e-05	8.129273385789345713e-07
1.329685284853523648e-05	8.370635503557603156e-07
1.352160383267306994e-05	8.619060626882789903e-07
1.375015368602047702e-05	8.874752046144494755e-07
1.398256661922970337e-05	9.137918792217358801e-07
1.421890792827791775e-05	9.408775794997835825e-07
1.445924401281218556e-05	9.687544046195172806e-07
1.470364239480425140e-05	9.974450766496937590e-07
1.495217173752060936e-05	1.026972957722320604e-06
1.520490186481353606e-05	1.057362067658652575e-06
1.546190378073772831e-05	1.088637102067637442e-06
1.572324968949899453e-05	1.120823450929182936e-06
1.598901301573965207e-05	1.153947217674695567e-06
1.625926842516730133e-05	1.188035238777891157e-06
1.653409184553174079e-05	1.223115103868946359e-06
1.681356048795696318e-05	1.259215176385651500e-06
1.709775286863338809e-05	1.296364614775318854e-06
1.738674883087671066e-05	1.334593394261689841e-06
1.768062956756000055e-05	1.373932329191454380e-06
1.797947764392438726e-05	1.414413095975171167e-06
1.828337702077590442e-05	1.456068256638030070e-06
1.859241307807381921e-05	1.498931282995954820e-06
1.890667263891824960e-05	1.543036581473254583e-06
1.922624399394281931e-05	1.588419518578127492e-06
1.955121692611963820e-05	1.635116447052920788e-06
1.988168273598394005e-05	1.683164732716455412e-06
2.021773426728446277e-05	1.732602782015952671e-06
2.055946593306806188e-05	1.783470070306858236e-06
2.090697374220454717e-05	1.835807170878920803e-06
2.126035532636048084e-05	1.889655784747723417e-06
2.161970996742848953e-05	1.945058771230979813e-06
2.198513862542019826e-05	2.002060179329599085e-06
2.235674396683105304e-05	2.060705279934010322e-06
2.273463039348393747e-05	2.121040598876501850e-06
2.311890407186101566e-05	2.183113950851212526e-06
2.350967296293065580e-05	2.246974474223498312e-06
2.390704685247916156e-05	2.312672666751364869e-06
2.431113738195477895e-05	2.380260422241815733e-06
2.472205807983296721e-05	2.449791068165733039e-06
2.513992439351238667e-05	2.521319404255540082e-06
2.556485372174920653e-05	2.594901742110130054e-06
2.599696544764047972e-05	2.670595945832651499e-06
2.643638097216418787e-05	2.748461473726775370e-06
2.688322374828698802e-05	2.828559421078257780e-06
2.733761931564792142e-05	2.910952564048736198e-06
2.779969533582839453e-05	2.995705404709668430e-06
2.826958162821882354e-05	3.082884217244980542e-06
2.874741020649071774e-05	3.172557095351338915e-06
2.923331531568612113e-05	3.264794000866196967e-06
2.972743346993304866e-05	3.359666813653833620e-06
3.022990349079926684e-05	3.457249382780989682e-06
3.074086654629380722e-05	3.557617579013846833e-06
3.126046619052763072e-05	3.660849348669202647e-06
3.178884840404535552e-05	3.767024768853529852e-06
3.232616163483768439e-05	3.876226104123911686e-06
3.287255684004812447e-05	3.988537864606392727e-06
3.342818752838356790e-05	4.104046865607267642e-06
3.399320980324275641e-05	4.222842288754529030e-06
3.456778240657304527e-05	4.345015744706781496e-06
3.515206676346841592e-05	4.470661337468273765e-06
3.574622702752206616e-05	4.599875730349653131e-06
3.635043012694450139e-05	4.732758213614395096e-06
3.696484581146223093e-05	4.869410773852647429e-06
3.758964670000808795e-05	5.009938165124257557e-06
3.822500832921870388e-05	5.154447981914658817e-06
3.887110920275097572e-05	5.303050733947431764e-06
3.952813084143210176e-05	5.455859922898925389e-06
4.019625783425803943e-05	5.612992121061382772e-06
4.087567789025284005e-05	5.774567052001462897e-06
4.156658189120576708e-05	5.940707673263126469e-06
4.226916394529853092e-05	6.111540261163818811e-06
4.298362144164019741e-05	6.287194497735187719e-06
4.371015510572303796e-05	6.467803559859669017e-06
4.444896905581571312e-05	6.653504210656104667e-06
4.520027086031053377e-05	6.844436893168817010e-06
4.596427159603870473e-05	7.040745826415009078e-06
4.674118590757267352e-05	7.242579103847853744e-06
4.753123206752940771e-05	7.450088794292502337e-06
4.833463203789430644e-05	7.663431045414989431e-06
4.915161153238073493e-05	7.882766189784046098e-06
4.998240007984356624e-05	8.108258853588006535e-06
5.082723108876559525e-05	8.340078068070437195e-06
5.168634191283236288e-05	8.578397383748555450e-06
5.255997391761710167e-05	8.823394987481546499e-06
5.344837254839108326e-05	9.075253822455523042e-06
5.435178739908172257e-05	9.334161711155233238e-06
5.527047228239525742e-05	9.600311481392542856e-06
5.620468530112457639e-05	9.873901095464223052e-06
5.715468892066349253e-05	1.015513378251332517e-05
5.812075004274504757e-05	1.044421817416885767e-05
5.910314008042789533e-05	1.074136844354193778e-05
6.010213503434843707e-05	1.104680444765631796e-05
6.111801557026345553e-05	1.136075187339488840e-05
6.215106709790228898e-05	1.168344238704374369e-05
6.320157985115178797e-05	1.201511378751831862e-05
6.426984896959787321e-05	1.235601016335803793e-05
6.535617458144342038e-05	1.270638205357637545e-05
6.646086188782971240e-05	1.306648661245739726e-05
6.758422124858115099e-05	1.343658777838925203e-05
6.872656826940111863e-05	1.381695644682959656e-05
6.988822389054047174e-05	1.420787064749773762e-05
7.106951447696465861e-05	1.460961572589165976e-05
7.227077191004629639e-05	1.502248452923039026e-05
7.349233368080552791e-05	1.544677759692261338e-05
7.473454298472863809e-05	1.588280335566724872e-05
7.599774881818697982e-05	1.633087831929089527e-05
7.728230607648789517e-05	1.679132729343249446e-05
7.858857565358148443e-05	1.726448358518498745e-05
7.991692454345255051e-05	1.775068921780782326e-05
8.126772594322802224e-05	1.825029515062681875e-05
8.264135935802465773e-05	1.876366150423811169e-05
8.403821070757165439e-05	1.929115779113881678e-05
8.545867243463269578e-05	1.983316315190572721e-05
8.690314361526321394e-05	2.039006659704985518e-05
8.837203007092955202e-05	2.096226725467374106e-05
8.986574448252320402e-05	2.155017462406331254e-05
9.138470650630395851e-05	2.215420883534892460e-05
9.292934289180014931e-05	2.277480091537053633e-05
9.450008760170456993e-05	2.341239305988872306e-05
9.609738193379394305e-05	2.406743891228155870e-05
9.772167464491231779e-05	2.474040384887519922e-05
9.937342207704681467e-05	2.543176527105387732e-05
1.010530882855375953e-04	2.614201290430327843e-05
1.027611451694522251e-04	2.687164910433936096e-05
1.044980726041651943e-04	2.762118917048190692e-05
1.062643585761784858e-04	2.839116166643306150e-05
1.080604993202192510e-04	2.918210874862411214e-05
1.098869994586575572e-04	2.999458650229983896e-05
1.117443721432778697e-04	3.082916528550874209e-05
1.136331391994486811e-04	3.168643008117537959e-05
1.155538312727281931e-04	3.256698085743134092e-05
1.175069879779481330e-04	3.347143293638645315e-05
1.194931580508180820e-04	3.440041737152532366e-05
1.215128995020904455e-04	3.535458133391661354e-05
1.235667797743341897e-04	3.633458850742947633e-05
1.256553759013554958e-04	3.734111949315054328e-05
1.277792746703147969e-04	3.837487222320353663e-05
1.299390727865835948e-04	3.943656238417433149e-05
1.321353770413874452e-04	4.052692385034943644e-05
1.343688044822834680e-04	4.164670912698026107e-05
1.366399825865173903e-04	4.279668980378800502e-05
1.389495494373137348e-04	4.397765701893161308e-05
1.412981539031428761e-04	4.519042193366056969e-05
1.436864558200198782e-04	4.643581621788355618e-05
1.461151261768842277e-04	4.771469254688517968e-05
1.485848473041125864e-04	4.902792510942851885e-05
1.510963130652191798e-04	5.037641012748652404e-05
1.536502290517936125e-04	5.176106638784713201e-05
1.562473127817378576e-04	5.318283578584720130e-05
1.588882939008491742e-04	5.464268388148695900e-05
1.615739143878149021e-04	5.614160046819104241e-05
1.643049287626683534e-04	5.768060015447763170e-05
1.670821042987704773e-04	5.926072295881023406e-05
1.699062212383743503e-04	6.088303491790662597e-05
1.727780730118311508e-04	6.254862870878533489e-05
1.756984664605053779e-04	6.425862428483951512e-05
1.786682220634525510e-04	6.601416952622466403e-05
1.816881741679340619e-04	6.781644090486361976e-05
1.847591712238235014e-04	6.966664416436534253e-05
1.878820760219775598e-04	7.156601501517005507e-05
1.910577659366365815e-04	7.351581984523284340e-05
1.942871331719188508e-04	7.551735644656348389e-05
1.975710850124866975e-04	7.757195475795216201e-05
2.009105440784431595e-04	7.968097762420592312e-05
2.043064485845435532e-04	8.184582157223979149e-05
2.077597526037827484e-04	8.406791760435879568e-05
2.112714263354412516e-04	8.634873200908535300e-05
2.148424563776607336e-04	8.868976718988432471e-05
2.184738460046266035e-04	9.109256251214806861e-05
2.221666154484372088e-04	9.355869516881060578e-05
2.259218021857336319e-04	9.608978106496164433e-05
2.297404612291798821e-04	9.868747572184754743e-05
2.336236654238643619e-04	1.013534752006394618e-04
2.375725057487147664e-04	1.040895170463687993e-04
2.415880916230062926e-04	1.068973812524276620e-04
2.456715512180506823e-04	1.097788912460431038e-04
2.498240317741551374e-04	1.127359148951409399e-04
2.540466999229345113e-04	1.157703655370174414e-04
2.583407420150777146e-04	1.188842030292543877e-04
2.627073644536481322e-04	1.220794348233057605e-04
2.671477940330213769e-04	1.253581170612060806e-04
2.716632782835508839e-04	1.287223556958476997e-04
2.762550858220584886e-04	1.321743076352862082e-04
2.809245067082517420e-04	1.357161819115415482e-04
2.856728528071605542e-04	1.393502408743634501e-04
2.905014581577071149e-04	1.430788014104510911e-04
2.954116793474984839e-04	1.469042361886057030e-04
3.004048958939589458e-04	1.508289749313218033e-04
3.054825106319022541e-04	1.548555057133171094e-04
3.106459501076553839e-04	1.589863762875162408e-04
3.158966649798455200e-04	1.632241954390097646e-04
3.212361304269563162e-04	1.675716343675135280e-04
3.266658465617811426e-04	1.720314280988764777e-04
3.321873388528732334e-04	1.766063769261693903e-04
3.378021585531251671e-04	1.812993478809216607e-04
3.435118831355896260e-04	1.861132762350611771e-04
3.493181167366675791e-04	1.910511670341335383e-04
3.552224906067888996e-04	1.961160966623810115e-04
3.612266635687054364e-04	2.013112144402654554e-04
3.673323224835388411e-04	2.066397442550449882e-04
3.735411827246973185e-04	2.121049862249974342e-04
3.798549886598084251e-04	2.177103183979194403e-04
3.862755141407951480e-04	2.234591984845186053e-04
3.928045630022363724e-04	2.293551656273382761e-04
3.994439695681523583e-04	2.354018422058573189e-04
4.061955991673505371e-04	2.416029356784136237e-04
4.130613486574917070e-04	2.479622404616272898e-04
4.200431469580040238e-04	2.544836398479772372e-04
4.271429555920115370e-04	2.611711079622296345e-04
4.343627692374198417e-04	2.680287117573998878e-04
4.417046162873167637e-04	2.750606130509516229e-04
4.491705594198478857e-04	2.822710706019476907e-04
4.567626961777168084e-04	2.896644422298612614e-04
4.644831595574927248e-04	2.972451869757985229e-04
4.723341186088662533e-04	3.050178673068493153e-04
4.803177790440425624e-04	3.129871513643338581e-04
4.884363838574312710e-04	3.211578152566980080e-04
4.966922139558113680e-04	3.295347453978282929e-04
5.050875887991499369e-04	3.381229408915700048e-04
5.136248670522445235e-04	3.469275159632291940e-04
5.223064472473935762e-04	3.559537024388796309e-04
5.311347684582509721e-04	3.652068522732559563e-04
5.401123109850867847e-04	3.746924401270866688e-04
5.492415970516181150e-04	3.844160659946703408e-04
5.585251915136241153e-04	3.943834578825537534e-04
5.679657025795404723e-04	4.046004745401610950e-04
5.775657825432239500e-04	4.150731082432244034e-04
5.873281285291183634e-04	4.258074876309135104e-04
5.972554832499969713e-04	4.368098805975122526e-04
6.073506357775315233e-04	4.480866972395758548e-04
6.176164223258701069e-04	4.596444928594330538e-04
6.280557270484683893e-04	4.714899710259759470e-04
6.386714828483902292e-04	4.836299866936526323e-04
6.494666722022935214e-04	4.960715493805828566e-04
6.604443279983617009e-04	5.088218264067761402e-04
6.716075343883770371e-04	5.218881461933614274e-04
6.829594276542177208e-04	5.352780016238424792e-04
6.945031970889825731e-04	5.489990534683108266e-04
7.062420858930204982e-04	5.630591338716331570e-04
7.181793920851009278e-04	5.774662499065948791e-04
7.303184694289851413e-04	5.922285871930069818e-04
7.426627283756636558e-04	6.073545135837998907e-04
7.552156370215079703e-04	6.228525829191107867e-04
7.679807220826359018e-04	6.387315388494348200e-04
7.809615698857278474e-04	6.550003187288453831e-04
7.941618273756021005e-04	6.716680575793681877e-04
8.075852031398165869e-04	6.887440921275640726e-04
8.212354684505887787e-04	7.062379649143931456e-04
8.351164583243314002e-04	7.241594284794511827e-04
8.492320725990840828e-04	7.425184496206539220e-04
8.635862770301777234e-04	7.613252137305088563e-04
8.781831044043956558e-04	7.805901292100355261e-04
8.930266556729828109e-04	8.003238319614997204e-04
9.081211011037989590e-04	8.205371899610651963e-04
9.234706814529467173e-04	8.412413079125087003e-04
9.390797091562086895e-04	8.624475319831506918e-04
9.549525695406079406e-04	8.841674546231302048e-04
9.710937220564705170e-04	9.064129194692382638e-04
9.875077015302894702e-04	9.291960263344160647e-04
1.004199119438780371e-03	9.525291362841476232e-04
1.021172665204465608e-03	9.764248768009092631e-04
1.038433107513160114e-03	1.000896147037871713e-03
1.055985295653722377e-03	1.025956123163056536e-03
1.073834160880457900e-03	1.051618263795161970e-03
1.091984717798539194e-03	1.077896315532245576e-03
1.110442065772854507e-03	1.104804318574522260e-03
1.129211390360662605e-03	1.132356612442466260e-03
1.148297964768467102e-03	1.160567841791478472e-03
1.167707151333511727e-03	1.189452962324327127e-03
1.187444403030319794e-03	1.219027246802630981e-03
1.207515265002700490e-03	1.249306291158619941e-03
1.227925376121640280e-03	1.280306020708407580e-03
1.248680470569537605e-03	1.312042696468065754e-03
1.269786379451208914e-03	1.344532921573729283e-03
1.291249032432127903e-03	1.377793647807012446e-03
1.313074459404352896e-03	1.411842182226984762e-03
1.335268792180613557e-03	1.446696193909989981e-03
1.357838266217031810e-03	1.482373720798568556e-03
1.380789222364966172e-03	1.518893176660762300e-03
1.404128108652453718e-03	1.556273358161055012e-03
1.427861482095777682e-03	1.594533452044248362e-03
1.451996010541646868e-03	1.633693042433529861e-03
1.476538474540514635e-03	1.673772118244009656e-03
1.501495769251562883e-03	1.714791080712995981e-03
1.526874906379880551e-03	1.756770751048282973e-03
1.552683016146397385e-03	1.799732378195731527e-03
1.578927349291094897e-03	1.843697646727373522e-03
1.605615279110095620e-03	1.888688684851351106e-03
1.632754303527175332e-03	1.934728072544917698e-03
1.660352047200289172e-03	1.981838849811765318e-03
1.688416263663707062e-03	2.030044525064934619e-03
1.716954837506350865e-03	2.079369083636542319e-03
1.745975786586963620e-03	2.129836996415589764e-03
1.775487264286699802e-03	2.181473228615031599e-03
1.805497561799810540e-03	2.234303248669404929e-03
1.836015110463037458e-03	2.288353037264168229e-03
1.867048484124379315e-03	2.343649096497994223e-03
1.898606401551900620e-03	2.400218459179205913e-03
1.930697728883249645e-03	2.458088698257531422e-03
1.963331482116591892e-03	2.517287936392387238e-03
1.996516829643624896e-03	2.577844855658785721e-03
2.030263094825430960e-03	2.639788707392109416e-03
2.064579758611852570e-03	2.703149322172795996e-03
2.099476462205150749e-03	2.767957119952135607e-03
2.134963009768679927e-03	2.834243120320207969e-03
2.171049371181348660e-03	2.902038952917126297e-03
2.207745684838647703e-03	2.971376867988608471e-03
2.245062260500998302e-03	3.042289747086915439e-03
2.283009582190270292e-03	3.114811113918250149e-03
2.321598311135244109e-03	3.188975145337574150e-03
2.360839288766866315e-03	3.264816682491854076e-03
2.400743539764126078e-03	3.342371242112708585e-03
2.441322275151419988e-03	3.421675027959378626e-03
2.482586895448264750e-03	3.502764942412966466e-03
2.524548993872262424e-03	3.585678598222835113e-03
2.567220359596177753e-03	3.670454330405979997e-03
2.610612981060093842e-03	3.757131208300292739e-03
2.654739049339540410e-03	3.845749047772469009e-03
2.699610961570552640e-03	3.936348423581339379e-03
2.745241324432623389e-03	4.028970681897386420e-03
2.791642957690524101e-03	4.123657952979146307e-03
2.838828897796003177e-03	4.220453164007187917e-03
2.886812401550338004e-03	4.319400052076250579e-03
2.935606949828818354e-03	4.420543177346233921e-03
2.985226251368169013e-03	4.523927936352525533e-03
3.035684246617996723e-03	4.629600575476231980e-03
3.086995111657330013e-03	4.737608204574767640e-03
3.139173262177360861e-03	4.847998811185773131e-03
3.192233357531519197e-03	4.960821272891605821e-03
3.246190304853968818e-03	5.076125373731451944e-03
3.301059263247754609e-03	5.193961816996837781e-03
3.356855648043719550e-03	5.314382240028007326e-03
3.413595135131412741e-03	5.437439228814329104e-03
3.471293665363201029e-03	5.563186332757165051e-03
3.529967449032819348e-03	5.691678079595271708e-03
3.589632970429635240e-03	5.822969990492805718e-03
3.650306992469857896e-03	5.957118595289833882e-03
3.712006561406061729e-03	6.094181447915378996e-03
3.774749011616297320e-03	6.234217141962801120e-03
3.838551970474150202e-03	6.377285326427293080e-03
3.903433363301120080e-03	6.523446721605283792e-03
3.969411418402700453e-03	6.672763135155360820e-03
4.036504672189604979e-03	6.825297478320394712e-03
4.104731974385511864e-03	6.981113782310246693e-03
4.174112493322873658e-03	7.140277214844703221e-03
4.244665721328222743e-03	7.302854096855905357e-03
4.316411480198500787e-03	7.468911919349611149e-03
4.389369926769958255e-03	7.638519360424531231e-03
4.463561558581177410e-03	7.811746302448902349e-03
4.539007219631814756e-03	7.988663849393350808e-03
4.615728106238700494e-03	8.169344344319097798e-03
4.693745772990876204e-03	8.353861387020263679e-03
4.773082138805334954e-03	8.542289851819309318e-03
4.853759493085097083e-03	8.734705905514183327e-03
4.935800501981372872e-03	8.931187025475836871e-03
5.019228214761578891e-03	9.131812017894742547e-03
5.104066070284974874e-03	9.336661036174736389e-03
5.190337903587798063e-03	9.545815599472717156e-03
5.278067952579629761e-03	9.759358611382195833e-03
5.367280864853020243e-03	9.977374378759151438e-03
5.458001704608171807e-03	1.019994863068802993e-02
5.550255959694683563e-03	1.042716853758591383e-02
5.644069548772311269e-03	1.065912273044267861e-02
5.739468828592763153e-03	1.089590132019488400e-02
5.836480601404602127e-03	1.113759591723104819e-02
5.935132122483251921e-03	1.138429965102564709e-02
6.035451107788337120e-03	1.163610718989944656e-02
6.137465741750428375e-03	1.189311476130527900e-02
6.241204685189401941e-03	1.215542017028379412e-02
6.346697083366644419e-03	1.242312282182791300e-02
6.453972574173352621e-03	1.269632373967393389e-02
6.563061296457267831e-03	1.297512558699956582e-02
6.673993898490092683e-03	1.325963268687984850e-02
6.786801546578089504e-03	1.354995104284761887e-02
6.901515933818189001e-03	1.384618835955483962e-02
