# Data associated with arXiv:2110.09653
# 
# Scale-free velocity distribution, f(E), of a einasto0-24 dark matter distribution (see Eq. 13 and the surrounding discussion)
# 
# Published: 3/29/22, Jack Runburg, contact: runburg@hawaii.edu
# 
# 
# -----------------------------------------------------------------
# 
# 	 tilde E 		 | 		 tilde f
# 
# -----------------------------------------------------------------
4.496819145498982316e-08	9.097583444025974121e+11
4.642041500815116153e-08	8.756748450735334473e+11
4.791920419613875669e-08	8.414056407956982422e+11
4.946603995764720175e-08	8.071282306830743408e+11
5.106244988582341508e-08	7.733932005979787598e+11
5.271000968192320347e-08	7.396540464335410156e+11
5.441034465368259520e-08	7.068375584289880371e+11
5.616513125975206236e-08	6.754794240866094971e+11
5.797609870159433356e-08	6.455147385395415039e+11
5.984503056427724971e-08	6.168814894406374512e+11
6.177376650764181989e-08	5.895204279260406494e+11
6.376420400937102983e-08	5.633749452812192383e+11
6.581830016152112679e-08	5.383909551537044678e+11
6.793807352213715103e-08	5.145167810460244141e+11
7.012560602360708837e-08	4.917030487889580078e+11
7.238304493947361780e-08	4.699025838468135376e+11
7.471260491145937988e-08	4.490703131785969238e+11
7.711657003852181786e-08	4.291631715257363281e+11
7.959729602980880635e-08	4.101400118751387939e+11
8.215721242343015617e-08	3.919615198492024536e+11
8.479882487303423888e-08	3.745901320547587280e+11
8.752471750421751487e-08	3.579899579270841675e+11
9.033755534287481945e-08	3.421267051780910645e+11
9.324008681764243997e-08	3.269676085245022583e+11
9.623514633865997317e-08	3.124813615902227173e+11
9.932565695494386777e-08	2.986380518683569946e+11
1.025146330927193174e-07	2.854090985925206299e+11
1.058051833771469806e-07	2.727671933346570435e+11
1.092005135399292341e-07	2.606862433326175232e+11
1.127039294153776071e-07	2.491413172638536072e+11
1.163188400275730660e-07	2.381085935027437134e+11
1.200487607713550216e-07	2.275653106492023621e+11
1.238973166899300630e-07	2.174897202787443848e+11
1.278682458519878841e-07	2.078610418084626160e+11
1.319654028312986286e-07	1.986594193599992676e+11
1.361927622918331227e-07	1.898658805551095276e+11
1.405544226815660384e-07	1.814622971522573853e+11
1.450546100381808958e-07	1.734313474449029541e+11
1.496976819100233488e-07	1.657564803111615601e+11
1.544881313957154747e-07	1.584218809042762451e+11
1.594305913059634863e-07	1.514124378384726868e+11
1.645298384511935924e-07	1.447137118646309814e+11
1.697907980587349288e-07	1.383119059304284363e+11
1.752185483234120854e-07	1.321938365739788361e+11
1.808183250954806633e-07	1.263469066028450317e+11
1.865955267099945439e-07	1.207590789837630463e+11
1.925557189617754217e-07	1.154188518916499634e+11
1.987046402302983281e-07	1.103152348931365967e+11
2.050482067589326834e-07	1.054377261610875854e+11
2.115925180930812772e-07	1.007762907317541809e+11
2.183438626819314708e-07	9.632133971447474670e+10
2.253087236486218028e-07	9.206371043679986572e+10
2.324937847338138660e-07	8.799464747039334106e+10
2.399059364177600481e-07	8.410578450507733154e+10
2.475522822261289277e-07	8.038912702945251465e+10
2.554401452250072214e-07	7.683703578211468506e+10
2.635770747106162352e-07	7.344221094447727966e+10
2.719708530994951800e-07	7.019767703634783936e+10
2.806295030250061490e-07	6.709676847908902740e+10
2.895612946462466350e-07	6.413311581072340393e+10
2.987747531755724642e-07	6.130063251284511566e+10
3.082786666311477376e-07	5.859350241555338287e+10
3.180820938211218080e-07	5.600616767821586609e+10
3.281943725661838807e-07	5.353331729562896729e+10
3.386251281675009945e-07	5.116987611609203339e+10
3.493842821271711354e-07	4.891099435689377594e+10
3.604820611286029158e-07	4.675203757609159088e+10
3.719290062843754997e-07	4.468857709758687592e+10
3.837359826593873066e-07	4.271638086218519592e+10
3.959141890773319953e-07	4.083140468438497925e+10
4.084751682187111701e-07	3.902978389735206604e+10
4.214308170189133803e-07	3.730782537456291199e+10
4.347933973750319158e-07	3.566199990048934937e+10
4.485755471704396030e-07	3.408893488744834137e+10
4.627902916263033878e-07	3.258540740997800064e+10
4.774510549895361711e-07	3.114833755575496292e+10
4.925716725669567385e-07	2.977478206681274414e+10
5.081664031156383724e-07	2.846192826874240875e+10
5.242499415998076380e-07	2.720708826633478165e+10
5.408374323248367312e-07	2.600769339908858490e+10
5.579444824592806246e-07	2.486128894320170593e+10
5.755871759561139599e-07	2.376552905055665970e+10
5.937820878847030046e-07	2.271817191019447708e+10
6.125462991853727211e-07	2.171707512748713303e+10
6.318974118586881924e-07	2.076019130835363770e+10
6.518535646020261939e-07	1.984556383897914124e+10
6.724334489062284873e-07	1.897132285443288040e+10
6.936563256256266763e-07	1.813568138540206528e+10
7.155420420349688116e-07	1.733693167739158249e+10
7.381110493872380824e-07	1.657344167378597260e+10
7.613844209867466365e-07	1.584365165398340797e+10
7.853838707921933527e-07	1.514607102195467186e+10
8.101317725649337441e-07	1.447927523798986053e+10
8.356511795779606864e-07	1.384190288587450027e+10
8.619658449017000770e-07	1.323265287062109184e+10
8.891002422830121489e-07	1.265028174223691559e+10
9.170795876343423797e-07	1.209360113646120071e+10
9.459298611504415476e-07	1.156147533008556557e+10
9.756778300704325652e-07	1.105281890547746468e+10
1.006351072103692694e-06	1.056659451798752213e+10
1.037977999538293860e-06	1.010181076360029602e+10
1.070587884051498393e-06	9.657520140086921692e+09
1.104210882242134144e-06	9.232817099818202972e+09
1.138878061905339253e-06	8.826836188778163910e+09
1.174621429070745530e-06	8.438750267815062523e+09
1.211473955825596060e-06	8.067768813984692574e+09
1.249469608945107860e-06	7.713136295692190170e+09
1.288643379352747670e-06	7.374130622018063545e+09
1.329031312433965027e-06	7.050061659491982460e+09
1.370670539227332447e-06	6.740269814715041161e+09
1.413599308517844534e-06	6.444124681059465408e+09
1.457857019857812387e-06	6.161023744516638756e+09
1.503484257541297726e-06	5.890391147161758423e+09
1.550522825559027260e-06	5.631676505762626648e+09
1.599015783561129506e-06	5.384353782795717239e+09
1.649007483856103342e-06	5.147920207284255028e+09
1.700543609474907202e-06	4.921895244018820763e+09
1.753671213330011566e-06	4.705819608035058022e+09
1.808438758500087095e-06	4.499254323343058586e+09
1.864896159671599368e-06	4.301779822997699738e+09
1.923094825769778913e-06	4.112995089310681820e+09
1.983087703811896840e-06	3.932516832359610558e+09
2.044929324017086949e-06	3.759978704422856331e+09
2.108675846207489269e-06	3.595030550091923237e+09
2.174385107536647216e-06	3.437337688764329910e+09
2.242116671582091321e-06	3.286580229715578079e+09
2.311931878839723542e-06	3.142452417072645664e+09
2.383893898659088882e-06	3.004662004094549179e+09
2.458067782659126776e-06	2.872929654938474655e+09
2.534520519665598110e-06	2.746988373381667137e+09
2.613321092211980049e-06	2.626582956570701599e+09
2.694540534647040916e-06	2.511469472857949257e+09
2.778251992893459735e-06	2.401414763213766098e+09
2.864530785902702100e-06	2.296195964471820831e+09
2.953454468853083914e-06	2.195600053694980621e+09
3.045102898138578826e-06	2.099423412851935148e+09
3.139558298197845830e-06	2.007471412686553001e+09
3.236905330233541746e-06	1.919558015225447893e+09
3.337231162874039494e-06	1.835505393562668085e+09
3.440625544830324853e-06	1.755143568839289188e+09
3.547180879602814597e-06	1.678310063157401323e+09
3.656992302293948085e-06	1.604849567761918545e+09
3.770157758583826140e-06	1.534613626209584951e+09
3.886778085928060769e-06	1.467460331291702986e+09
4.006957097037915351e-06	1.403254035483066082e+09
4.130801665705014231e-06	1.341865074342981577e+09
4.258421815034061529e-06	1.283169501934924603e+09
4.389930808148877100e-06	1.227048838168935299e+09
4.525445241438730889e-06	1.173389827189847708e+09
4.665085140413477769e-06	1.122084206565830231e+09
4.808974058238269261e-06	1.073028486592791200e+09
4.957239177019706934e-06	1.026123739530614257e+09
5.110011411917871357e-06	9.812753979313380718e+08
5.267425518160118224e-06	9.383930621650482416e+08
5.429620201034615250e-06	8.973903162217619419e+08
5.596738228943698357e-06	8.581845518620842695e+08
5.768926549598837475e-06	8.206968004001054764e+08
5.946336409441719607e-06	7.848515720293968916e+08
6.129123476377251041e-06	7.505767021999387741e+08
6.317447965907292668e-06	7.178032048083064556e+08
6.511474770755666890e-06	6.864651319368131161e+08
6.711373594077447985e-06	6.564994396718124151e+08
6.917319086348018545e-06	6.278458599925839901e+08
7.129490986029357534e-06	6.004467782492033243e+08
7.348074264114328937e-06	5.742471160678993464e+08
7.573259272651042698e-06	5.491942194365743399e+08
7.805241897353392392e-06	5.252377517744795680e+08
8.044223714405044633e-06	5.023295916667032242e+08
8.290412151568140567e-06	4.804237351811670065e+08
8.544020653709921307e-06	4.594762024564079046e+08
8.805268852863453829e-06	4.394449484196103811e+08
9.074382742942182877e-06	4.202897775338030457e+08
9.351594859229656520e-06	4.019722621611416936e+08
9.637144462770606173e-06	3.844556646799914837e+08
9.931277729790768038e-06	3.677048629648232460e+08
1.023424794627755433e-05	3.516862791672499776e+08
1.054631570785619324e-05	3.363678116577357650e+08
1.086774912509894313e-05	3.217187699676118493e+08
1.119882403440974369e-05	3.077098126135144830e+08
1.153982421462805205e-05	2.943128876380890012e+08
1.189104160950160763e-05	2.815011758155626059e+08
1.225277655617906351e-05	2.692490363405175805e+08
1.262533801987918210e-05	2.575319549199806154e+08
1.300904383489576938e-05	2.463264941558181643e+08
1.340422095210195069e-05	2.356102461243118644e+08
1.381120569312143764e-05	2.253617870407714844e+08
1.423034401133776331e-05	2.155606339280014038e+08
1.466199175991815814e-05	2.061872031966521144e+08
1.510651496703076497e-05	1.972227710583144426e+08
1.556429011844046321e-05	1.886494356767990589e+08
1.603570444767134326e-05	1.804500809899712205e+08
1.652115623392929705e-05	1.726083421393667161e+08
1.702105510798258814e-05	1.651085724091736078e+08
1.753582236620236456e-05	1.579358116285347939e+08
1.806589129297164872e-05	1.510757559791930020e+08
1.861170749167359893e-05	1.445147291112528145e+08
1.917372922447758347e-05	1.382396545545591116e+08
1.975242776114486147e-05	1.322380293346214145e+08
2.034828773708172210e-05	1.264978987547209710e+08
2.096180752087340951e-05	1.210078322873384058e+08
2.159349959153652074e-05	1.157569005332167745e+08
2.224389092573556741e-05	1.107346531885807514e+08
2.291352339521158664e-05	1.059310979905624241e+08
2.360295417468013019e-05	1.013366805868367553e+08
2.431275616045925340e-05	9.694226529012465477e+07
2.504351840009555618e-05	9.273911668540500104e+07
2.579584653326235546e-05	8.871888204096136987e+07
2.657036324420912040e-05	8.487357450208385289e+07
2.736770872605094758e-05	8.119555701597540081e+07
2.818854115718870675e-05	7.767752697507677972e+07
2.903353719016201406e-05	7.431250152104313672e+07
2.990339245324058479e-05	7.109380351459771395e+07
3.079882206506831966e-05	6.801504810885189474e+07
3.172056116268114360e-05	6.507012991836755723e+07
3.266936544322596831e-05	6.225321075110167265e+07
3.364601171971831790e-05	5.955870788910593092e+07
3.465129849117942306e-05	5.698128286875340343e+07
3.568604652750593880e-05	5.451583076797656715e+07
3.675109946942962870e-05	5.215746996025878936e+07
3.784732444393480418e-05	4.990153231741852313e+07
3.897561269550824602e-05	4.774355384885831922e+07
4.013688023360418265e-05	4.567926574383295327e+07
4.133206849671863575e-05	4.370458581741482764e+07
4.256214503347030369e-05	4.181561032474504411e+07
4.382810420110042678e-05	4.000860695520578325e+07
4.513096788180829329e-05	3.828000405148588866e+07
4.647178621735053759e-05	3.662638846815180779e+07
4.785163836234158409e-05	3.504449535671537369e+07
4.927163325669967856e-05	3.353120249223437160e+07
5.073291041769865571e-05	3.208352400478240103e+07
5.223664075208648650e-05	3.069860443084291369e+07
5.378402738875073059e-05	2.937371298856048286e+07
5.537630653241513924e-05	2.810623753486987203e+07
5.701474833886456951e-05	2.689368223519423977e+07
5.870065781220645677e-05	2.573365680967386067e+07
6.043537572468445128e-05	2.462387751970020309e+07
6.222027955957799882e-05	2.356215971993926540e+07
6.405678447772207866e-05	2.254641408686259389e+07
6.594634430820555814e-05	2.157464242825794592e+07
6.789045256380556550e-05	2.064493370093709975e+07
6.989064348173692641e-05	1.975546020766038075e+07
7.194849309030283799e-05	1.890447394414045662e+07
7.406562030204405381e-05	1.809030310939609632e+07
7.624368803400315207e-05	1.731134878177414834e+07
7.848440435572146207e-05	1.656608172382315248e+07
8.078952366561377636e-05	1.585303933838115633e+07
8.316084789636346878e-05	1.517082275982616842e+07
8.560022775000712019e-05	1.451809405736799911e+07
8.810956396338390651e-05	1.389357358351706341e+07
9.069080860463775678e-05	1.329603742079249397e+07
9.334596640148369389e-05	1.272431494932880439e+07
9.607709610194758900e-05	1.217728651485513709e+07
9.888631186832322773e-05	1.165388120426193997e+07
1.017757847050844200e-04	1.115307471949938871e+07
1.047477439215222623e-04	1.067388733856529742e+07
1.078044786298808461e-04	1.021538196696886793e+07
1.109483392797862137e-04	9.776662284036103636e+06
1.141817392297772685e-04	9.356870957247523591e+06
1.175071563567593253e-04	8.955187941756676883e+06
1.209271347042278097e-04	8.570828851281760260e+06
1.244442861701093410e-04	8.203043407739013433e+06
1.280612922351003283e-04	7.851113949263632298e+06
1.317809057323893597e-04	7.514354003163244575e+06
1.356059526596696974e-04	7.192106937221816741e+06
1.395393340343681116e-04	6.883744647617958486e+06
1.435840277930248120e-04	6.588666320225265808e+06
1.477430907357944322e-04	6.306297229037371464e+06
1.520196605170302405e-04	6.036087639797003008e+06
1.564169576829590460e-04	5.777511652206110768e+06
1.609382877574520182e-04	5.530066220006755553e+06
1.655870433769257750e-04	5.293270135666712187e+06
1.703667064754258234e-04	5.066663070068608038e+06
1.752808505209551670e-04	4.849804675717697479e+06
1.803331428041490088e-04	4.642273710422135890e+06
1.855273467803899136e-04	4.443667206905298866e+06
1.908673244665022508e-04	4.253599676303194836e+06
1.963570388931692068e-04	4.071702349387854803e+06
2.020005566142423045e-04	3.897622443000926170e+06
2.078020502741307924e-04	3.731022474809319712e+06
2.137658012344846137e-04	3.571579586641688831e+06
2.198962022613940991e-04	3.418984914490940049e+06
2.261977602743669568e-04	3.272942979841488414e+06
2.326750991583492604e-04	3.133171098559798207e+06
2.393329626400882257e-04	2.999398842530901078e+06
2.461762172301513703e-04	2.871367490308052395e+06
2.532098552319429438e-04	2.748829519189392217e+06
2.604389978190778409e-04	2.631548132525003515e+06
2.678688981824928358e-04	2.519296779519726988e+06
2.755049447487068750e-04	2.411858711109396536e+06
2.833526644706558595e-04	2.309026568701252807e+06
2.914177261925533888e-04	2.210601951160355937e+06
2.997059440902543150e-04	2.116395048840923700e+06
3.082232811886177933e-04	2.026224259041147539e+06
3.169758529573940531e-04	1.939915832132623997e+06
3.259699309871802605e-04	1.857303530817830237e+06
3.352119467470112183e-04	1.778228303848619806e+06
3.447084954251863832e-04	1.702537973978999304e+06
3.544663398549445922e-04	1.630086939429902239e+06
3.644924145266331315e-04	1.560735890791855985e+06
3.747938296880365372e-04	1.494351533941446804e+06
3.853778755345545854e-04	1.430806333883492276e+06
3.962520264909545988e-04	1.369978260415066732e+06
4.074239455864247183e-04	1.311750553983164020e+06
4.189014889247105657e-04	1.256011493857610971e+06
4.306927102511159933e-04	1.202654180793684674e+06
4.428058656181869924e-04	1.151576328500965610e+06
4.552494181519245084e-04	1.102680063821404940e+06
4.680320429203859486e-04	1.055871734329925850e+06
4.811626319065788601e-04	1.011061727109501255e+06
4.946502990875478213e-04	9.681642928728600964e+05
5.085043856216176546e-04	9.270973791999237146e+05
5.227344651457462065e-04	8.877824690770934103e+05
5.373503491849879144e-04	8.501444305926727830e+05
5.523620926760865668e-04	8.141113684724681079e+05
5.677799996072380477e-04	7.796144835875675781e+05
5.836146287761051705e-04	7.465879406205125852e+05
5.998767996681575931e-04	7.149687390073314309e+05
6.165775984574838617e-04	6.846965904920212924e+05
6.337283841322004013e-04	6.557138015063768253e+05
6.513407947466384349e-04	6.279651618160414509e+05
6.694267538025013052e-04	6.013978362903879024e+05
6.879984767612076562e-04	5.759612628248826368e+05
7.070684776896802790e-04	5.516070541786245303e+05
7.266495760418198229e-04	5.282889033753715921e+05
7.467549035779908308e-04	5.059624946741002495e+05
7.673979114248097137e-04	4.845854171233623638e+05
7.885923772775894468e-04	4.641170823002217221e+05
8.103524127477961967e-04	4.445186457839172217e+05
8.326924708579068121e-04	4.257529319510430214e+05
8.556273536860788771e-04	4.077843617096393718e+05
8.791722201630602050e-04	3.905788838331733132e+05
9.033425940237875280e-04	3.741039089904063148e+05
9.281543719161569877e-04	3.583282467550018919e+05
9.536238316694577079e-04	3.432220449865552946e+05
9.797676407249807616e-04	3.287567326459234464e+05
1.006602864731342408e-03	3.149049642281571287e+05
1.034146976307077394e-03	3.016405669126962312e+05
1.062417863973078372e-03	2.889384902450297959e+05
1.091433841257459254e-03	2.767747576326975250e+05
1.121213655975476656e-03	2.651264201747986954e+05
1.151776499687114574e-03	2.539715123765071330e+05
1.183142017334988571e-03	2.432890097524677112e+05
1.215330317065222744e-03	2.330587884510323929e+05
1.248361980233966394e-03	2.232615864159554476e+05
1.282258071602267397e-03	2.138789661786632496e+05
1.317040149721942967e-03	2.048932796816052869e+05
1.352730277515236173e-03	1.962876340307551727e+05
1.389351033050918163e-03	1.880458592601464188e+05
1.426925520519607346e-03	1.801524769594132085e+05
1.465477381411032717e-03	1.725926708947603474e+05
1.505030805895996504e-03	1.653522580987808178e+05
1.545610544415803233e-03	1.584176623072473449e+05
1.587241919481893705e-03	1.517758873166796402e+05
1.629950837688488472e-03	1.454144922142573632e+05
1.673763801940986477e-03	1.393215676663026097e+05
1.718707923902904359e-03	1.334857129766886355e+05
1.764810936664126806e-03	1.278960143587054336e+05
1.812101207633243921e-03	1.225420238776701008e+05
1.860607751656765708e-03	1.174137396491458640e+05
1.910360244367931759e-03	1.125015865077228373e+05
1.961389035767943743e-03	1.077963978666708426e+05
2.013725164042337069e-03	1.032893981663498998e+05
2.067400369615246449e-03	9.897218598497925268e+04
2.122447109444307312e-03	9.483671850724371325e+04
2.178898571558924614e-03	9.087529429951433849e+04
2.236788689844598516e-03	8.708054225486193900e+04
2.296152159076043225e-03	8.344540393500319624e+04
2.357024450201716283e-03	7.996312185456579027e+04
2.419441825882482668e-03	7.662722634447691962e+04
2.483441356287001498e-03	7.343152313506975770e+04
2.549060935146468202e-03	7.037008166839234764e+04
2.616339296071296464e-03	6.743722377970375237e+04
2.685316029132272641e-03	6.462751298505312297e+04
2.756031597708768262e-03	6.193574371224026982e+04
2.828527355606401048e-03	5.935693017087754561e+04
2.902845565726978536e-03	5.688630138815237297e+04
2.979029412761434632e-03	5.451929116807138780e+04
3.057123028378488060e-03	5.225152214211873797e+04
3.137171504742586499e-03	5.007880357986971649e+04
3.219220914160172108e-03	4.799712523348564719e+04
3.303318327864557518e-03	4.600264610199898016e+04
3.389511835086531609e-03	4.409168822442258534e+04
3.477850562412915063e-03	4.226072973301656748e+04
3.568384693435082758e-03	4.050639821156613471e+04
3.661165488689443592e-03	3.882546429278694995e+04
3.756245305891844910e-03	3.721483556475349178e+04
3.853677620467752495e-03	3.567155073487386107e+04
3.953517046380023228e-03	3.419277402984192304e+04
4.055819357255935342e-03	3.277578984620694246e+04
4.160641507815192319e-03	3.141799763776283362e+04
4.268041655600403154e-03	3.011690700614468369e+04
