# Data associated with arXiv:2110.09653
# 
# Scale-free gravitational potential, Phi(r), of a einasto0-24 dark matter distribution (see Eq. 12 and the surrounding discussion)
# 
# Published: 3/29/22, Jack Runburg, contact: runburg@hawaii.edu
# 
# 
# -----------------------------------------------------------------
# 
# 	 tilde r 		 | 		 tilde Phi
# 
# -----------------------------------------------------------------
1.000000000000000082e-05	4.496819145498982316e-08
1.016902569856036418e-05	4.642041500815116153e-08
1.034090836579813217e-05	4.791920419613875669e-08
1.051569629182590727e-05	4.946603995764720175e-08
1.069343858298338107e-05	5.106244988582341508e-08
1.087418517563349352e-05	5.271000968192320347e-08
1.105798685019213608e-05	5.441034465368259520e-08
1.124489524539464294e-05	5.616513125975206236e-08
1.143496287280373749e-05	5.797609870159433356e-08
1.162824313156251011e-05	5.984503056427724971e-08
1.182479032339672186e-05	6.177376650764181989e-08
1.202465966787094358e-05	6.376420400937102983e-08
1.222790731790219642e-05	6.581830016152112679e-08
1.243459037553620304e-05	6.793807352213715103e-08
1.264476690798990365e-05	7.012560602360708837e-08
1.285849596396550032e-05	7.238304493947361780e-08
1.307583759024001738e-05	7.471260491145937988e-08
1.329685284853523648e-05	7.711657003852181786e-08
1.352160383267306994e-05	7.959729602980880635e-08
1.375015368602047702e-05	8.215721242343015617e-08
1.398256661922970337e-05	8.479882487303423888e-08
1.421890792827791775e-05	8.752471750421751487e-08
1.445924401281218556e-05	9.033755534287481945e-08
1.470364239480425140e-05	9.324008681764243997e-08
1.495217173752060936e-05	9.623514633865997317e-08
1.520490186481353606e-05	9.932565695494386777e-08
1.546190378073772831e-05	1.025146330927193174e-07
1.572324968949899453e-05	1.058051833771469806e-07
1.598901301573965207e-05	1.092005135399292341e-07
1.625926842516730133e-05	1.127039294153776071e-07
1.653409184553174079e-05	1.163188400275730660e-07
1.681356048795696318e-05	1.200487607713550216e-07
1.709775286863338809e-05	1.238973166899300630e-07
1.738674883087671066e-05	1.278682458519878841e-07
1.768062956756000055e-05	1.319654028312986286e-07
1.797947764392438726e-05	1.361927622918331227e-07
1.828337702077590442e-05	1.405544226815660384e-07
1.859241307807381921e-05	1.450546100381808958e-07
1.890667263891824960e-05	1.496976819100233488e-07
1.922624399394281931e-05	1.544881313957154747e-07
1.955121692611963820e-05	1.594305913059634863e-07
1.988168273598394005e-05	1.645298384511935924e-07
2.021773426728446277e-05	1.697907980587349288e-07
2.055946593306806188e-05	1.752185483234120854e-07
2.090697374220454717e-05	1.808183250954806633e-07
2.126035532636048084e-05	1.865955267099945439e-07
2.161970996742848953e-05	1.925557189617754217e-07
2.198513862542019826e-05	1.987046402302983281e-07
2.235674396683105304e-05	2.050482067589326834e-07
2.273463039348393747e-05	2.115925180930812772e-07
2.311890407186101566e-05	2.183438626819314708e-07
2.350967296293065580e-05	2.253087236486218028e-07
2.390704685247916156e-05	2.324937847338138660e-07
2.431113738195477895e-05	2.399059364177600481e-07
2.472205807983296721e-05	2.475522822261289277e-07
2.513992439351238667e-05	2.554401452250072214e-07
2.556485372174920653e-05	2.635770747106162352e-07
2.599696544764047972e-05	2.719708530994951800e-07
2.643638097216418787e-05	2.806295030250061490e-07
2.688322374828698802e-05	2.895612946462466350e-07
2.733761931564792142e-05	2.987747531755724642e-07
2.779969533582839453e-05	3.082786666311477376e-07
2.826958162821882354e-05	3.180820938211218080e-07
2.874741020649071774e-05	3.281943725661838807e-07
2.923331531568612113e-05	3.386251281675009945e-07
2.972743346993304866e-05	3.493842821271711354e-07
3.022990349079926684e-05	3.604820611286029158e-07
3.074086654629380722e-05	3.719290062843754997e-07
3.126046619052763072e-05	3.837359826593873066e-07
3.178884840404535552e-05	3.959141890773319953e-07
3.232616163483768439e-05	4.084751682187111701e-07
3.287255684004812447e-05	4.214308170189133803e-07
3.342818752838356790e-05	4.347933973750319158e-07
3.399320980324275641e-05	4.485755471704396030e-07
3.456778240657304527e-05	4.627902916263033878e-07
3.515206676346841592e-05	4.774510549895361711e-07
3.574622702752206616e-05	4.925716725669567385e-07
3.635043012694450139e-05	5.081664031156383724e-07
3.696484581146223093e-05	5.242499415998076380e-07
3.758964670000808795e-05	5.408374323248367312e-07
3.822500832921870388e-05	5.579444824592806246e-07
3.887110920275097572e-05	5.755871759561139599e-07
3.952813084143210176e-05	5.937820878847030046e-07
4.019625783425803943e-05	6.125462991853727211e-07
4.087567789025284005e-05	6.318974118586881924e-07
4.156658189120576708e-05	6.518535646020261939e-07
4.226916394529853092e-05	6.724334489062284873e-07
4.298362144164019741e-05	6.936563256256266763e-07
4.371015510572303796e-05	7.155420420349688116e-07
4.444896905581571312e-05	7.381110493872380824e-07
4.520027086031053377e-05	7.613844209867466365e-07
4.596427159603870473e-05	7.853838707921933527e-07
4.674118590757267352e-05	8.101317725649337441e-07
4.753123206752940771e-05	8.356511795779606864e-07
4.833463203789430644e-05	8.619658449017000770e-07
4.915161153238073493e-05	8.891002422830121489e-07
4.998240007984356624e-05	9.170795876343423797e-07
5.082723108876559525e-05	9.459298611504415476e-07
5.168634191283236288e-05	9.756778300704325652e-07
5.255997391761710167e-05	1.006351072103692694e-06
5.344837254839108326e-05	1.037977999538293860e-06
5.435178739908172257e-05	1.070587884051498393e-06
5.527047228239525742e-05	1.104210882242134144e-06
5.620468530112457639e-05	1.138878061905339253e-06
5.715468892066349253e-05	1.174621429070745530e-06
5.812075004274504757e-05	1.211473955825596060e-06
5.910314008042789533e-05	1.249469608945107860e-06
6.010213503434843707e-05	1.288643379352747670e-06
6.111801557026345553e-05	1.329031312433965027e-06
6.215106709790228898e-05	1.370670539227332447e-06
6.320157985115178797e-05	1.413599308517844534e-06
6.426984896959787321e-05	1.457857019857812387e-06
6.535617458144342038e-05	1.503484257541297726e-06
6.646086188782971240e-05	1.550522825559027260e-06
6.758422124858115099e-05	1.599015783561129506e-06
6.872656826940111863e-05	1.649007483856103342e-06
6.988822389054047174e-05	1.700543609474907202e-06
7.106951447696465861e-05	1.753671213330011566e-06
7.227077191004629639e-05	1.808438758500087095e-06
7.349233368080552791e-05	1.864896159671599368e-06
7.473454298472863809e-05	1.923094825769778913e-06
7.599774881818697982e-05	1.983087703811896840e-06
7.728230607648789517e-05	2.044929324017086949e-06
7.858857565358148443e-05	2.108675846207489269e-06
7.991692454345255051e-05	2.174385107536647216e-06
8.126772594322802224e-05	2.242116671582091321e-06
8.264135935802465773e-05	2.311931878839723542e-06
8.403821070757165439e-05	2.383893898659088882e-06
8.545867243463269578e-05	2.458067782659126776e-06
8.690314361526321394e-05	2.534520519665598110e-06
8.837203007092955202e-05	2.613321092211980049e-06
8.986574448252320402e-05	2.694540534647040916e-06
9.138470650630395851e-05	2.778251992893459735e-06
9.292934289180014931e-05	2.864530785902702100e-06
9.450008760170456993e-05	2.953454468853083914e-06
9.609738193379394305e-05	3.045102898138578826e-06
9.772167464491231779e-05	3.139558298197845830e-06
9.937342207704681467e-05	3.236905330233541746e-06
1.010530882855375953e-04	3.337231162874039494e-06
1.027611451694522251e-04	3.440625544830324853e-06
1.044980726041651943e-04	3.547180879602814597e-06
1.062643585761784858e-04	3.656992302293948085e-06
1.080604993202192510e-04	3.770157758583826140e-06
1.098869994586575572e-04	3.886778085928060769e-06
1.117443721432778697e-04	4.006957097037915351e-06
1.136331391994486811e-04	4.130801665705014231e-06
1.155538312727281931e-04	4.258421815034061529e-06
1.175069879779481330e-04	4.389930808148877100e-06
1.194931580508180820e-04	4.525445241438730889e-06
1.215128995020904455e-04	4.665085140413477769e-06
1.235667797743341897e-04	4.808974058238269261e-06
1.256553759013554958e-04	4.957239177019706934e-06
1.277792746703147969e-04	5.110011411917871357e-06
1.299390727865835948e-04	5.267425518160118224e-06
1.321353770413874452e-04	5.429620201034615250e-06
1.343688044822834680e-04	5.596738228943698357e-06
1.366399825865173903e-04	5.768926549598837475e-06
1.389495494373137348e-04	5.946336409441719607e-06
1.412981539031428761e-04	6.129123476377251041e-06
1.436864558200198782e-04	6.317447965907292668e-06
1.461151261768842277e-04	6.511474770755666890e-06
1.485848473041125864e-04	6.711373594077447985e-06
1.510963130652191798e-04	6.917319086348018545e-06
1.536502290517936125e-04	7.129490986029357534e-06
1.562473127817378576e-04	7.348074264114328937e-06
1.588882939008491742e-04	7.573259272651042698e-06
1.615739143878149021e-04	7.805241897353392392e-06
1.643049287626683534e-04	8.044223714405044633e-06
1.670821042987704773e-04	8.290412151568140567e-06
1.699062212383743503e-04	8.544020653709921307e-06
1.727780730118311508e-04	8.805268852863453829e-06
1.756984664605053779e-04	9.074382742942182877e-06
1.786682220634525510e-04	9.351594859229656520e-06
1.816881741679340619e-04	9.637144462770606173e-06
1.847591712238235014e-04	9.931277729790768038e-06
1.878820760219775598e-04	1.023424794627755433e-05
1.910577659366365815e-04	1.054631570785619324e-05
1.942871331719188508e-04	1.086774912509894313e-05
1.975710850124866975e-04	1.119882403440974369e-05
2.009105440784431595e-04	1.153982421462805205e-05
2.043064485845435532e-04	1.189104160950160763e-05
2.077597526037827484e-04	1.225277655617906351e-05
2.112714263354412516e-04	1.262533801987918210e-05
2.148424563776607336e-04	1.300904383489576938e-05
2.184738460046266035e-04	1.340422095210195069e-05
2.221666154484372088e-04	1.381120569312143764e-05
2.259218021857336319e-04	1.423034401133776331e-05
2.297404612291798821e-04	1.466199175991815814e-05
2.336236654238643619e-04	1.510651496703076497e-05
2.375725057487147664e-04	1.556429011844046321e-05
2.415880916230062926e-04	1.603570444767134326e-05
2.456715512180506823e-04	1.652115623392929705e-05
2.498240317741551374e-04	1.702105510798258814e-05
2.540466999229345113e-04	1.753582236620236456e-05
2.583407420150777146e-04	1.806589129297164872e-05
2.627073644536481322e-04	1.861170749167359893e-05
2.671477940330213769e-04	1.917372922447758347e-05
2.716632782835508839e-04	1.975242776114486147e-05
2.762550858220584886e-04	2.034828773708172210e-05
2.809245067082517420e-04	2.096180752087340951e-05
2.856728528071605542e-04	2.159349959153652074e-05
2.905014581577071149e-04	2.224389092573556741e-05
2.954116793474984839e-04	2.291352339521158664e-05
3.004048958939589458e-04	2.360295417468013019e-05
3.054825106319022541e-04	2.431275616045925340e-05
3.106459501076553839e-04	2.504351840009555618e-05
3.158966649798455200e-04	2.579584653326235546e-05
3.212361304269563162e-04	2.657036324420912040e-05
3.266658465617811426e-04	2.736770872605094758e-05
3.321873388528732334e-04	2.818854115718870675e-05
3.378021585531251671e-04	2.903353719016201406e-05
3.435118831355896260e-04	2.990339245324058479e-05
3.493181167366675791e-04	3.079882206506831966e-05
3.552224906067888996e-04	3.172056116268114360e-05
3.612266635687054364e-04	3.266936544322596831e-05
3.673323224835388411e-04	3.364601171971831790e-05
3.735411827246973185e-04	3.465129849117942306e-05
3.798549886598084251e-04	3.568604652750593880e-05
3.862755141407951480e-04	3.675109946942962870e-05
3.928045630022363724e-04	3.784732444393480418e-05
3.994439695681523583e-04	3.897561269550824602e-05
4.061955991673505371e-04	4.013688023360418265e-05
4.130613486574917070e-04	4.133206849671863575e-05
4.200431469580040238e-04	4.256214503347030369e-05
4.271429555920115370e-04	4.382810420110042678e-05
4.343627692374198417e-04	4.513096788180829329e-05
4.417046162873167637e-04	4.647178621735053759e-05
4.491705594198478857e-04	4.785163836234158409e-05
4.567626961777168084e-04	4.927163325669967856e-05
4.644831595574927248e-04	5.073291041769865571e-05
4.723341186088662533e-04	5.223664075208648650e-05
4.803177790440425624e-04	5.378402738875073059e-05
4.884363838574312710e-04	5.537630653241513924e-05
4.966922139558113680e-04	5.701474833886456951e-05
5.050875887991499369e-04	5.870065781220645677e-05
5.136248670522445235e-04	6.043537572468445128e-05
5.223064472473935762e-04	6.222027955957799882e-05
5.311347684582509721e-04	6.405678447772207866e-05
5.401123109850867847e-04	6.594634430820555814e-05
5.492415970516181150e-04	6.789045256380556550e-05
5.585251915136241153e-04	6.989064348173692641e-05
5.679657025795404723e-04	7.194849309030283799e-05
5.775657825432239500e-04	7.406562030204405381e-05
5.873281285291183634e-04	7.624368803400315207e-05
5.972554832499969713e-04	7.848440435572146207e-05
6.073506357775315233e-04	8.078952366561377636e-05
6.176164223258701069e-04	8.316084789636346878e-05
6.280557270484683893e-04	8.560022775000712019e-05
6.386714828483902292e-04	8.810956396338390651e-05
6.494666722022935214e-04	9.069080860463775678e-05
6.604443279983617009e-04	9.334596640148369389e-05
6.716075343883770371e-04	9.607709610194758900e-05
6.829594276542177208e-04	9.888631186832322773e-05
6.945031970889825731e-04	1.017757847050844200e-04
7.062420858930204982e-04	1.047477439215222623e-04
7.181793920851009278e-04	1.078044786298808461e-04
7.303184694289851413e-04	1.109483392797862137e-04
7.426627283756636558e-04	1.141817392297772685e-04
7.552156370215079703e-04	1.175071563567593253e-04
7.679807220826359018e-04	1.209271347042278097e-04
7.809615698857278474e-04	1.244442861701093410e-04
7.941618273756021005e-04	1.280612922351003283e-04
8.075852031398165869e-04	1.317809057323893597e-04
8.212354684505887787e-04	1.356059526596696974e-04
8.351164583243314002e-04	1.395393340343681116e-04
8.492320725990840828e-04	1.435840277930248120e-04
8.635862770301777234e-04	1.477430907357944322e-04
8.781831044043956558e-04	1.520196605170302405e-04
8.930266556729828109e-04	1.564169576829590460e-04
9.081211011037989590e-04	1.609382877574520182e-04
9.234706814529467173e-04	1.655870433769257750e-04
9.390797091562086895e-04	1.703667064754258234e-04
9.549525695406079406e-04	1.752808505209551670e-04
9.710937220564705170e-04	1.803331428041490088e-04
9.875077015302894702e-04	1.855273467803899136e-04
1.004199119438780371e-03	1.908673244665022508e-04
1.021172665204465608e-03	1.963570388931692068e-04
1.038433107513160114e-03	2.020005566142423045e-04
1.055985295653722377e-03	2.078020502741307924e-04
1.073834160880457900e-03	2.137658012344846137e-04
1.091984717798539194e-03	2.198962022613940991e-04
1.110442065772854507e-03	2.261977602743669568e-04
1.129211390360662605e-03	2.326750991583492604e-04
1.148297964768467102e-03	2.393329626400882257e-04
1.167707151333511727e-03	2.461762172301513703e-04
1.187444403030319794e-03	2.532098552319429438e-04
1.207515265002700490e-03	2.604389978190778409e-04
1.227925376121640280e-03	2.678688981824928358e-04
1.248680470569537605e-03	2.755049447487068750e-04
1.269786379451208914e-03	2.833526644706558595e-04
1.291249032432127903e-03	2.914177261925533888e-04
1.313074459404352896e-03	2.997059440902543150e-04
1.335268792180613557e-03	3.082232811886177933e-04
1.357838266217031810e-03	3.169758529573940531e-04
1.380789222364966172e-03	3.259699309871802605e-04
1.404128108652453718e-03	3.352119467470112183e-04
1.427861482095777682e-03	3.447084954251863832e-04
1.451996010541646868e-03	3.544663398549445922e-04
1.476538474540514635e-03	3.644924145266331315e-04
1.501495769251562883e-03	3.747938296880365372e-04
1.526874906379880551e-03	3.853778755345545854e-04
1.552683016146397385e-03	3.962520264909545988e-04
1.578927349291094897e-03	4.074239455864247183e-04
1.605615279110095620e-03	4.189014889247105657e-04
1.632754303527175332e-03	4.306927102511159933e-04
1.660352047200289172e-03	4.428058656181869924e-04
1.688416263663707062e-03	4.552494181519245084e-04
1.716954837506350865e-03	4.680320429203859486e-04
1.745975786586963620e-03	4.811626319065788601e-04
1.775487264286699802e-03	4.946502990875478213e-04
1.805497561799810540e-03	5.085043856216176546e-04
1.836015110463037458e-03	5.227344651457462065e-04
1.867048484124379315e-03	5.373503491849879144e-04
1.898606401551900620e-03	5.523620926760865668e-04
1.930697728883249645e-03	5.677799996072380477e-04
1.963331482116591892e-03	5.836146287761051705e-04
1.996516829643624896e-03	5.998767996681575931e-04
2.030263094825430960e-03	6.165775984574838617e-04
2.064579758611852570e-03	6.337283841322004013e-04
2.099476462205150749e-03	6.513407947466384349e-04
2.134963009768679927e-03	6.694267538025013052e-04
2.171049371181348660e-03	6.879984767612076562e-04
2.207745684838647703e-03	7.070684776896802790e-04
2.245062260500998302e-03	7.266495760418198229e-04
2.283009582190270292e-03	7.467549035779908308e-04
2.321598311135244109e-03	7.673979114248097137e-04
2.360839288766866315e-03	7.885923772775894468e-04
2.400743539764126078e-03	8.103524127477961967e-04
2.441322275151419988e-03	8.326924708579068121e-04
2.482586895448264750e-03	8.556273536860788771e-04
2.524548993872262424e-03	8.791722201630602050e-04
2.567220359596177753e-03	9.033425940237875280e-04
2.610612981060093842e-03	9.281543719161569877e-04
2.654739049339540410e-03	9.536238316694577079e-04
2.699610961570552640e-03	9.797676407249807616e-04
2.745241324432623389e-03	1.006602864731342408e-03
2.791642957690524101e-03	1.034146976307077394e-03
2.838828897796003177e-03	1.062417863973078372e-03
2.886812401550338004e-03	1.091433841257459254e-03
2.935606949828818354e-03	1.121213655975476656e-03
2.985226251368169013e-03	1.151776499687114574e-03
3.035684246617996723e-03	1.183142017334988571e-03
3.086995111657330013e-03	1.215330317065222744e-03
3.139173262177360861e-03	1.248361980233966394e-03
3.192233357531519197e-03	1.282258071602267397e-03
3.246190304853968818e-03	1.317040149721942967e-03
3.301059263247754609e-03	1.352730277515236173e-03
3.356855648043719550e-03	1.389351033050918163e-03
3.413595135131412741e-03	1.426925520519607346e-03
3.471293665363201029e-03	1.465477381411032717e-03
3.529967449032819348e-03	1.505030805895996504e-03
3.589632970429635240e-03	1.545610544415803233e-03
3.650306992469857896e-03	1.587241919481893705e-03
3.712006561406061729e-03	1.629950837688488472e-03
3.774749011616297320e-03	1.673763801940986477e-03
3.838551970474150202e-03	1.718707923902904359e-03
3.903433363301120080e-03	1.764810936664126806e-03
3.969411418402700453e-03	1.812101207633243921e-03
4.036504672189604979e-03	1.860607751656765708e-03
4.104731974385511864e-03	1.910360244367931759e-03
4.174112493322873658e-03	1.961389035767943743e-03
4.244665721328222743e-03	2.013725164042337069e-03
4.316411480198500787e-03	2.067400369615246449e-03
4.389369926769958255e-03	2.122447109444307312e-03
4.463561558581177410e-03	2.178898571558924614e-03
4.539007219631814756e-03	2.236788689844598516e-03
4.615728106238700494e-03	2.296152159076043225e-03
4.693745772990876204e-03	2.357024450201716283e-03
4.773082138805334954e-03	2.419441825882482668e-03
4.853759493085097083e-03	2.483441356287001498e-03
4.935800501981372872e-03	2.549060935146468202e-03
5.019228214761578891e-03	2.616339296071296464e-03
5.104066070284974874e-03	2.685316029132272641e-03
5.190337903587798063e-03	2.756031597708768262e-03
5.278067952579629761e-03	2.828527355606401048e-03
5.367280864853020243e-03	2.902845565726978536e-03
5.458001704608171807e-03	2.979029412761434632e-03
5.550255959694683563e-03	3.057123028378488060e-03
5.644069548772311269e-03	3.137171504742586499e-03
5.739468828592763153e-03	3.219220914160172108e-03
5.836480601404602127e-03	3.303318327864557518e-03
5.935132122483251921e-03	3.389511835086531609e-03
6.035451107788337120e-03	3.477850562412915063e-03
6.137465741750428375e-03	3.568384693435082758e-03
6.241204685189401941e-03	3.661165488689443592e-03
6.346697083366644419e-03	3.756245305891844910e-03
6.453972574173352621e-03	3.853677620467752495e-03
6.563061296457267831e-03	3.953517046380023228e-03
6.673993898490092683e-03	4.055819357255935342e-03
6.786801546578089504e-03	4.160641507815192319e-03
6.901515933818189001e-03	4.268041655600403154e-03
