# Data associated with arXiv:2110.09653
# 
# Scale-free J-factor angular distribution, J_S(theta), of a moore dark matter distribution (see Eq. 8 and the surrounding discussion)
# 
# Published: 3/29/22, Jack Runburg, contact: runburg@hawaii.edu
# 
# 
# -----------------------------------------------------------------
# 
# 	 tilde theta 		 | 	 tilde J s-wave 		 | 	 tilde J p-wave 		 | 	 tilde J d-wave 		 | 	 tilde J sommerfeld 
# 
# -----------------------------------------------------------------
1.000000000000000021e-03	2.669049289024383179e+05	2.466735334381245411e+04	6.729474333756052147e+03	1.441926653941093246e+06
1.021192151037671062e-03	2.569911167684003012e+05	2.403647176820978348e+04	6.620615905694457069e+03	1.379757830818690592e+06
1.042833409340945643e-03	2.474498733893962344e+05	2.342172714824495779e+04	6.513388975803812173e+03	1.320301460138169583e+06
1.064933292458827233e-03	2.382582251366170822e+05	2.282223337257844832e+04	6.407704417513731642e+03	1.263376768407145049e+06
1.087501519637659123e-03	2.294053358231419115e+05	2.223775579510315220e+04	6.303563412892184715e+03	1.208894083967243088e+06
1.110548016095517111e-03	2.208826454646005586e+05	2.166806515136196685e+04	6.200961609038123242e+03	1.156768766593084205e+06
1.134082917387199208e-03	2.126800469916327565e+05	2.111295574211628991e+04	6.099903079807614631e+03	1.106918406009720871e+06
1.158116573861711456e-03	2.047780538099695113e+05	2.057163784704729187e+04	6.000306685065314014e+03	1.059192268267999869e+06
1.182659555214217667e-03	1.971673591030014213e+05	2.004386206566128021e+04	5.902165023213899076e+03	1.013509486674903077e+06
1.207722655134462354e-03	1.898407059872606187e+05	1.952948576149312430e+04	5.805486419655983809e+03	9.698076942958497675e+05
1.233316896053688856e-03	1.827890591996857547e+05	1.902825684123084284e+04	5.710262978098498934e+03	9.280114649878938217e+05
1.259453533992170365e-03	1.759958910949554993e+05	1.853951049090904417e+04	5.616426412227852779e+03	8.879952303849809105e+05
1.286144063509461061e-03	1.694532086286313133e+05	1.806298943139996845e+04	5.523963361097139568e+03	8.496934885310764657e+05
1.313400222759557485e-03	1.631548582911909034e+05	1.759860798610044731e+04	5.432891072217571491e+03	8.130545643786472501e+05
1.341233998653187541e-03	1.570927788259676599e+05	1.714608049751420913e+04	5.343190072405456704e+03	7.780098905414009932e+05
1.369657632129505243e-03	1.512529532963435922e+05	1.670483078693451898e+04	5.254801115423784722e+03	7.444598032264154172e+05
1.398683623539492566e-03	1.456285171682927466e+05	1.627464154741196580e+04	5.167714628257078402e+03	7.123467043494852260e+05
1.428324738143458596e-03	1.402142512946618954e+05	1.585541357648989288e+04	5.081940592272438153e+03	6.816271459616847569e+05
1.458594011725036863e-03	1.350029764993884892e+05	1.544690519513964136e+04	4.997466432584868016e+03	6.522456004031545017e+05
1.489504756324154782e-03	1.299828059967299487e+05	1.504857601679011168e+04	4.914229055298338608e+03	6.241158236194314668e+05
1.521070566091505720e-03	1.251478446335902845e+05	1.466026324262824892e+04	4.832228508133474861e+03	5.971919074445142178e+05
1.553305323267072666e-03	1.204936645914880646e+05	1.428183814896394506e+04	4.751464734843087172e+03	5.714370198240923928e+05
1.586223204285366938e-03	1.160138830248769664e+05	1.391310072126434170e+04	4.671930479685100181e+03	5.468027202387599973e+05
1.619838686010041055e-03	1.116984202997254761e+05	1.355355976120932064e+04	4.593566754781567397e+03	5.232177304558551405e+05
1.654166552100628336e-03	1.075422139163425454e+05	1.320306632844237356e+04	4.516371212067209854e+03	5.006449737886795192e+05
1.689221899514206692e-03	1.035415063529787876e+05	1.286152001684902280e+04	4.440348881399218953e+03	4.790516265696934424e+05
1.725020145144853453e-03	9.969063164380396483e+04	1.252871911452945278e+04	4.365487767314513803e+03	4.583977423920689034e+05
1.761577032603788440e-03	9.598104316652628768e+04	1.220423619501581197e+04	4.291735659287413910e+03	4.386246722591707367e+05
1.798908639143220224e-03	9.240839362247604004e+04	1.188791485866633957e+04	4.219085678818793895e+03	4.196985931169427349e+05
1.837031382726912916e-03	8.896949334983930748e+04	1.157969746022950494e+04	4.147549712970091605e+03	4.015956236286665080e+05
1.875962029250603357e-03	8.565932009356479102e+04	1.127936008609635064e+04	4.077107328746402345e+03	3.842792335076056188e+05
1.915717699915417882e-03	8.247062759163099690e+04	1.098654788153271875e+04	4.007716242693845743e+03	3.677008511530391988e+05
1.956315878757565116e-03	7.939968284240667708e+04	1.070110862019537126e+04	3.939366585598527763e+03	3.518333739176613744e+05
1.997774420337589726e-03	7.644377734415247687e+04	1.042299979812791571e+04	3.872071498243436508e+03	3.366565432142933714e+05
2.040111557592579582e-03	7.359846551263233414e+04	1.015200313228185041e+04	3.805808306140929744e+03	3.221381019774122396e+05
2.083345909854779961e-03	7.085760401656715840e+04	9.887798433582702273e+03	3.740536549866142650e+03	3.082390958782029338e+05
2.127496491040134757e-03	6.821798746604213375e+04	9.630267508151155198e+03	3.676252424465918921e+03	2.949363951454228372e+05
2.172582718010372237e-03	6.567731513790927420e+04	9.379345229049726186e+03	3.612961214525514151e+03	2.822118463416976738e+05
2.218624419112281976e-03	6.323165695945070183e+04	9.134855886370996814e+03	3.550648335820550983e+03	2.700400604145923862e+05
2.265641842897974604e-03	6.087580500380764715e+04	8.896496597268673213e+03	3.489270867228851330e+03	2.583870806896964496e+05
2.313655667029933423e-03	5.860700703306979995e+04	8.664177552726796421e+03	3.428830697653257175e+03	2.472342851574746892e+05
2.362687007374795686e-03	5.642330798189791676e+04	8.437824510635640763e+03	3.369327824642770338e+03	2.365667662759602827e+05
2.412757427289825233e-03	5.432123771315630438e+04	8.217282302265601174e+03	3.310749983293580044e+03	2.263621249827645952e+05
2.463888947106213784e-03	5.229638156736572273e+04	8.002280996745309494e+03	3.253057697952048784e+03	2.165925366456618649e+05
2.516104053813336943e-03	5.034637648964748951e+04	7.792725674097500814e+03	3.196248229629917660e+03	2.072424644289437274e+05
2.569425710948245768e-03	4.846956048468963127e+04	7.588573398355052632e+03	3.140328861920160307e+03	1.982992366773289687e+05
2.623877368694733318e-03	4.666287302967298456e+04	7.389658279017676250e+03	3.085279993848738286e+03	1.897437085225418268e+05
2.679482974196439188e-03	4.492257213922446681e+04	7.195756138619197372e+03	3.031069906661374716e+03	1.815534980301865144e+05
2.736266982088478034e-03	4.324662899767174531e+04	7.006767026871424605e+03	2.977691252431552130e+03	1.737144637226053455e+05
2.794254365252289707e-03	4.163363015049965907e+04	6.822668550829886044e+03	2.925156277117686386e+03	1.662172362194897432e+05
2.853470625798387814e-03	4.008087926216999040e+04	6.643290090128079100e+03	2.873440672798655669e+03	1.590447951639424427e+05
2.913941806281861776e-03	3.858520472287076700e+04	6.468438941655413146e+03	2.822517948391845039e+03	1.521782036864981928e+05
2.975694501155571117e-03	3.714486475552054617e+04	6.298030498190231810e+03	2.772382551906636763e+03	1.456064527119345730e+05
3.038755868466027146e-03	3.575865674000157742e+04	6.132037187312696005e+03	2.723043818198834742e+03	1.393213219172249082e+05
3.103153641797168783e-03	3.442420763987014652e+04	5.970308865833375421e+03	2.674480447632541200e+03	1.333081795657130424e+05
3.168916142467233243e-03	3.313882943898472149e+04	5.812667923380757202e+03	2.626666074895097609e+03	1.275516916328916559e+05
3.236072291984112663e-03	3.190102685870281493e+04	5.659046115574159558e+03	2.579597795765816954e+03	1.220425979225734191e+05
3.304651624764658874e-03	3.070977618141602215e+04	5.509405023711279682e+03	2.533279313844293938e+03	1.167734363382782176e+05
3.374684301123556836e-03	2.956299094910124768e+04	5.363617016891746061e+03	2.487693499380911362e+03	1.117325822139739321e+05
3.446201120537424525e-03	2.845839313906925599e+04	5.221518094448310876e+03	2.442813739052434357e+03	1.069067729721995856e+05
3.519233535190044709e-03	2.739469914629050254e+04	5.083047159284752524e+03	2.398637917138913053e+03	1.022881535202032683e+05
3.593813663804625805e-03	2.637103710197913460e+04	4.948175778940944838e+03	2.355171754879104810e+03	9.787113572655276221e+04
3.669974305769219299e-03	2.538557424157731293e+04	4.816781224410362483e+03	2.312397257774913669e+03	9.364523245580655930e+04
3.747748955561452412e-03	2.443638010474443581e+04	4.688721801561773646e+03	2.270291014067754531e+03	8.959971178724864149e+04
3.827171817478984984e-03	2.352235285188698253e+04	4.563933936844134223e+03	2.228848193097584954e+03	8.572799596121236391e+04
3.908277820682117681e-03	2.264274954589764820e+04	4.442403433064743695e+03	2.188078087487493576e+03	8.202531569004089397e+04
3.991102634555192957e-03	2.179596171353479076e+04	4.324005780630428490e+03	2.147959473139186684e+03	7.848262641090391844e+04
4.075682684393532908e-03	2.098035351325809825e+04	4.208619899938646086e+03	2.108471743455224896e+03	7.509132923559154733e+04
4.162055167422817371e-03	2.019497918291531460e+04	4.096189191987279628e+03	2.069610248779531958e+03	7.184566326488082996e+04
4.250258069157961290e-03	1.943920529744741361e+04	3.986700213725229332e+03	2.031383528790810942e+03	6.874178126496782352e+04
4.340330180108637088e-03	1.871162144111014641e+04	3.880038987569002074e+03	1.993771327091222929e+03	6.577211854775094253e+04
4.432311112838861061e-03	1.801084149839317979e+04	3.776094926711524749e+03	1.956754014246887209e+03	6.292918792154378025e+04
4.526241319388085715e-03	1.733605371999179988e+04	3.674824774357809929e+03	1.920330775297664104e+03	6.020855517400931421e+04
4.622162109061505458e-03	1.668671773279426998e+04	3.576204809816901616e+03	1.884504776620540270e+03	5.760673994567864429e+04
4.720115666597336779e-03	1.606159781769439905e+04	3.480139812020480349e+03	1.849260286473930591e+03	5.511729554984989954e+04
4.820145070719144588e-03	1.545951951611994809e+04	3.386527810527605652e+03	1.814577558681412256e+03	5.273419408555460541e+04
4.922294313081310678e-03	1.487978614229864434e+04	3.295329353681221164e+03	1.780455053168392169e+03	5.045363655511466641e+04
5.026608317615998724e-03	1.432193642235591687e+04	3.206524418496157523e+03	1.746896031058863855e+03	4.827266551562865061e+04
5.133132960290130720e-03	1.378488856164269055e+04	3.120023654603517116e+03	1.713884632076896651e+03	4.618595054915115179e+04
5.241915089281041530e-03	1.326764748138166397e+04	3.035739718879785869e+03	1.681404101803839694e+03	4.418844270394169871e+04
5.353002545579732367e-03	1.276961528594724587e+04	2.953630098590131638e+03	1.649450521721531231e+03	4.227673812414738495e+04
5.466444184030696055e-03	1.229039796811648011e+04	2.873685962937418026e+03	1.618031104130581753e+03	4.044871165474246664e+04
5.582289894817666839e-03	1.182904921797658608e+04	2.795817416148577649e+03	1.587127344027085655e+03	3.869956818188496982e+04
5.700590625404708227e-03	1.138472597230868450e+04	2.719950589005232359e+03	1.556725395017323081e+03	3.702515261141963856e+04
5.821398402942216249e-03	1.095691514951526551e+04	2.646047617949802316e+03	1.526821261161511757e+03	3.542280439969858708e+04
5.944766357147824969e-03	1.054527997182061517e+04	2.574099950614033787e+03	1.497420883650890801e+03	3.389059094951976294e+04
6.070748743672167193e-03	1.014899326931306314e+04	2.504023922569464503e+03	1.468505787512714733e+03	3.242446230578961331e+04
6.199400967959818945e-03	9.767340795646945480e+03	2.435752519617037706e+03	1.440062762984346136e+03	3.102103549838170147e+04
6.330779609615908021e-03	9.399882281080850589e+03	2.369256657077759428e+03	1.412090690103385441e+03	2.967803448134076461e+04
6.464942447289089879e-03	9.046329662756130347e+03	2.304521921123922766e+03	1.384592699260318795e+03	2.839373571640160299e+04
6.601948484081890736e-03	8.705960439360269447e+03	2.241477356452716776e+03	1.357553570701977605e+03	2.716491193711632513e+04
6.741857973499477616e-03	8.378169516641935843e+03	2.180061709462327144e+03	1.330960382164962766e+03	2.598860270679790847e+04
6.884732445948405985e-03	8.062579130356136375e+03	2.120247266989276341e+03	1.304810788487970967e+03	2.486293999690826604e+04
7.030634735796891313e-03	7.758942705795713664e+03	2.062023300432180804e+03	1.279108519662782555e+03	2.378658779358321044e+04
7.179629009008595825e-03	7.466629615435700543e+03	2.005322522597943362e+03	1.253837685782260905e+03	2.275664822427170657e+04
7.331780791361950343e-03	7.185127249408019452e+03	1.950092955357693654e+03	1.228987765900254772e+03	2.177078522300199256e+04
7.487156997267587974e-03	6.914111498428364939e+03	1.896305530865982519e+03	1.204554974035445866e+03	2.082737446525451378e+04
7.645825959196438613e-03	6.653371140207244935e+03	1.843956083220869232e+03	1.180545811054307251e+03	1.992529770313500194e+04
7.807857457731475631e-03	6.402356122210961075e+03	1.792978520172778644e+03	1.156942959409535206e+03	1.906209240596690142e+04
7.973322752256328111e-03	6.160632191616474302e+03	1.743327173980319685e+03	1.133736206067812645e+03	1.823585015285486588e+04
8.142294612294233985e-03	5.927921295123938762e+03	1.694978790289157359e+03	1.110923567843101182e+03	1.744519577172244317e+04
8.314847349511189298e-03	5.704042350891525530e+03	1.647925880971369907e+03	1.088508930173560202e+03	1.668919816073212860e+04
8.491056850397209546e-03	5.488515915018348096e+03	1.602110761200893648e+03	1.066477239363985291e+03	1.596580682232036816e+04
8.671000609640279119e-03	5.280974119227722440e+03	1.557491101349869041e+03	1.044818628759020385e+03	1.527335546291382343e+04
8.854757764207504128e-03	5.081178440094821781e+03	1.514049112994060351e+03	1.023533214445579233e+03	1.461079505049438740e+04
9.042409128148579806e-03	4.888973509571084833e+03	1.471773597877810971e+03	1.002621848927843189e+03	1.397726220223260316e+04
9.234037228136720080e-03	4.703941709344358060e+03	1.430614210865228870e+03	9.820712188036178532e+02	1.337102764310506063e+04
9.429726339762870002e-03	4.525771409052120362e+03	1.390533311795871441e+03	9.618721341085059748e+02	1.279076990160935020e+04
9.629562524599030379e-03	4.354258013614548872e+03	1.351512067007421138e+03	9.420230149937817714e+02	1.223553287845601335e+04
9.833633668047030499e-03	4.189268104452668922e+03	1.313544962989969463e+03	9.225275640066047345e+02	1.170465085988196552e+04
1.004202951798940403e-02	4.030438157727372072e+03	1.276582607677218220e+03	9.033713942899872791e+02	1.119664647457448336e+04
1.025484172425938229e-02	3.877504183906359685e+03	1.240594313625363611e+03	8.845476205339854232e+02	1.071042676952374131e+04
1.047216387894729824e-02	3.730290705223435907e+03	1.205560136760953810e+03	8.660522921847129965e+02	1.024515587604377470e+04
1.069409155756119272e-02	3.588683052923774994e+03	1.171477833550936339e+03	8.478908184254481739e+02	9.800343817169561589e+03
1.092072236105970547e-02	3.452364998110778288e+03	1.138299959219719085e+03	8.300479488973958269e+02	9.374684075654793560e+03
1.115215595877575537e-02	3.321112906918543558e+03	1.105998659910418155e+03	8.125171285758502790e+02	8.967251667345053647e+03
1.138849413224978825e-02	3.194776289456208360e+03	1.074560313881114325e+03	7.952978323408311780e+02	8.577437831708450176e+03
1.162984081999205582e-02	3.073256503611766220e+03	1.043977503891842616e+03	7.783912893024926234e+02	8.204727522920948104e+03
1.187630216319339981e-02	2.956278641715489357e+03	1.014210275997465715e+03	7.617847506173192187e+02	7.848074965597127630e+03
1.212798655240480798e-02	2.843653253229934307e+03	9.852330448561614276e+02	7.454716876905999925e+02	7.506720308889731314e+03
1.238500467520621366e-02	2.735251290740120567e+03	9.570329074723414351e+02	7.294511881321593592e+02	7.180115890881957966e+03
1.264746956488544717e-02	2.630987821250078923e+03	9.296046272259086436e+02	7.137258648489652160e+02	6.867856683117537614e+03
1.291549665014883955e-02	2.530624013639217083e+03	9.029111199483257906e+02	6.982832268856190012e+02	6.569059907066854066e+03
1.318920380588532899e-02	2.433999371427176811e+03	8.769300861783692653e+02	6.831170426976414092e+02	6.283086488934217414e+03
1.346871140500627631e-02	2.341003246148080507e+03	8.516477175489460478e+02	6.682249396688647494e+02	6.009456794085675028e+03
1.375414237138396570e-02	2.251562440052792681e+03	8.270617756518026908e+02	6.536108688241647542e+02	5.747882159048509493e+03
1.404562223391196511e-02	2.165469598527314702e+03	8.031366002940249018e+02	6.392619919325624096e+02	5.497564006082418018e+03
1.434327918171109106e-02	2.082588749215994994e+03	7.798530413353413451e+02	6.251734668121843015e+02	5.257988140120172829e+03
1.464724412050539583e-02	2.002825029596489458e+03	7.572002056688120319e+02	6.113436036307879249e+02	5.028788298065343952e+03
1.495765073019278586e-02	1.926115295830757987e+03	7.351731610060134017e+02	5.977739426571218928e+02	4.809662816725557605e+03
1.527463552363575450e-02	1.852279637622188602e+03	7.137414486066011250e+02	5.844537027826175972e+02	4.599981651945231533e+03
1.559833790669801906e-02	1.781202854136509131e+03	6.928873054436820667e+02	5.713779137721882080e+02	4.399308480881201831e+03
1.592890023955338338e-02	1.712803626207147772e+03	6.726019121820371538e+02	5.585462378841272084e+02	4.207325670295881537e+03
1.626646789929399317e-02	1.647027429755311914e+03	6.528797580094975501e+02	5.459588814042357399e+02	4.023789134747074513e+03
1.661118934386526108e-02	1.583718268153386816e+03	6.336931971795896743e+02	5.336056102383404323e+02	3.848168768584600002e+03
1.696321617735579643e-02	1.522778533168327613e+03	6.150273192117249437e+02	5.214825032407263734e+02	3.680096946750772076e+03
1.732270321667098503e-02	1.464138524141717426e+03	5.968720007387111082e+02	5.095875308197320237e+02	3.519298257844948239e+03
1.768980855961942850e-02	1.407751113230047167e+03	5.792252908446721449e+02	4.979235580063123621e+02	3.365598067220247685e+03
1.806469365444235767e-02	1.353481127775510686e+03	5.620597639224954492e+02	4.864788143038273347e+02	3.218513888325239350e+03
1.844752337081655841e-02	1.301245859538294553e+03	5.453621491156179673e+02	4.752495393781522921e+02	3.077756965242761908e+03
1.883846607236187159e-02	1.250985574094710501e+03	5.291252862725741579e+02	4.642355603630290943e+02	2.943109089393444265e+03
1.923769369068539445e-02	1.202659496022308304e+03	5.133449481098105025e+02	4.534375229419899256e+02	2.814392112560525675e+03
1.964538180099485026e-02	1.156150574115139079e+03	4.979978465758609900e+02	4.428456005341261061e+02	2.691227558446338207e+03
2.006170969931423895e-02	1.111388719667295391e+03	4.830718382442982488e+02	4.324560663360006743e+02	2.573366841262173693e+03
2.048686048133601528e-02	1.068322746703287294e+03	4.685599935903055098e+02	4.222682077942533283e+02	2.460618526612227470e+03
2.092102112294418406e-02	1.026917339981593386e+03	4.544591343219184409e+02	4.122833253771777891e+02	2.352846145913993496e+03
2.136438256244391209e-02	9.870712086073361888e+02	4.407475827503398023e+02	4.024916139000577004e+02	2.249723617105227731e+03
2.181713978453380873e-02	9.487249520325676713e+02	4.274151577705350746e+02	3.928901090452482094e+02	2.151044476703204964e+03
2.227949190605761978e-02	9.118347157683368778e+02	4.144546852272510478e+02	3.834773411888116357e+02	2.056649068573719433e+03
2.275164226357336353e-02	8.763698822053631829e+02	4.018643887151850436e+02	3.742554984667484632e+02	1.966429958137963695e+03
2.323379850277806913e-02	8.422428587814116554e+02	3.896237487574702527e+02	3.652144726249373434e+02	1.880099404057328002e+03
2.372617266982774559e-02	8.094032972421788372e+02	3.777234448756969982e+02	3.563513194057342730e+02	1.797492314787836449e+03
2.422898130459259780e-02	7.778136304904787721e+02	3.661584645702575926e+02	3.476660170662308929e+02	1.718481932802021220e+03
2.474244553588843265e-02	7.474472861952062885e+02	3.549252903487426920e+02	3.391587898946516475e+02	1.642960100062892025e+03
2.526679117872631872e-02	7.182285705448391582e+02	3.440064291619901837e+02	3.308210912737413878e+02	1.570700802777173067e+03
