# Data associated with arXiv:2110.09653
# 
# Scale-free J-factor angular distribution, J_S(theta), of a nfw1-3 dark matter distribution (see Eq. 8 and the surrounding discussion)
# 
# Published: 3/29/22, Jack Runburg, contact: runburg@hawaii.edu
# 
# 
# -----------------------------------------------------------------
# 
# 	 tilde theta 		 | 	 tilde J s-wave 		 | 	 tilde J p-wave 		 | 	 tilde J d-wave 		 | 	 tilde J sommerfeld 
# 
# -----------------------------------------------------------------
1.000000000000000021e-03	7.208244344449053460e+04	4.426046487553974657e+03	1.028910693726159025e+03	5.142244928019244689e+05
1.021192151037671062e-03	6.969433305418443342e+04	4.337158303655084637e+03	1.017297484367009588e+03	4.936044417123602470e+05
1.042833409340945643e-03	6.738623319817401352e+04	4.250020136327084401e+03	1.005790606426944350e+03	4.738226699295541039e+05
1.064933292458827233e-03	6.515346143786443281e+04	4.164534778639450451e+03	9.943829811096428557e+02	4.548232211836783099e+05
1.087501519637659123e-03	6.299400074733913789e+04	4.080690484209331771e+03	9.830758488138253597e+02	4.365816090225349762e+05
1.110548016095517111e-03	6.090632825361876166e+04	3.998477421835622408e+03	9.718705720886025574e+02	4.190744957049371442e+05
1.134082917387199208e-03	5.888855799776544882e+04	3.917878624612418662e+03	9.607677969718534996e+02	4.022776816174996202e+05
1.158116573861711456e-03	5.693665587135257374e+04	3.838817036766836281e+03	9.497619714135904587e+02	3.861466493268391350e+05
1.182659555214217667e-03	5.504886067049321719e+04	3.761268965407132328e+03	9.388529123431928838e+02	3.706573546817104798e+05
1.207722655134462354e-03	5.322386456941461074e+04	3.685238921105501504e+03	9.280435064738065876e+02	3.557937618971511838e+05
1.233316896053688856e-03	5.145993944762819592e+04	3.610700275186957242e+03	9.173331764408101208e+02	3.415318591795872780e+05
1.259453533992170365e-03	4.975361009520025254e+04	3.537586251568331591e+03	9.067171785852074208e+02	3.278355216420803335e+05
1.286144063509461061e-03	4.810333873606645648e+04	3.465878126750229058e+03	8.961956680666538659e+02	3.146847284280541935e+05
1.313400222759557485e-03	4.650800198622318567e+04	3.395570840438257619e+03	8.857702368127514774e+02	3.020641108808736317e+05
1.341233998653187541e-03	4.496602062334661605e+04	3.326650236671729999e+03	8.754415425130023323e+02	2.899555714137484902e+05
1.369657632129505243e-03	4.347440120409040537e+04	3.259043608925096123e+03	8.652037150736632611e+02	2.783259837029714254e+05
1.398683623539492566e-03	4.203180108110667788e+04	3.192743554685265281e+03	8.550581215020265518e+02	2.671606073355316767e+05
1.428324738143458596e-03	4.063725506758021947e+04	3.127740773637728580e+03	8.450058410826699173e+02	2.564453382740252127e+05
1.458594011725036863e-03	3.928932355665027717e+04	3.064020204452155667e+03	8.350473381557256971e+02	2.461641350906860316e+05
1.489504756324154782e-03	3.798542832993506454e+04	3.001520696371801932e+03	8.251776022716145462e+02	2.362904414133424580e+05
1.521070566091505720e-03	3.672439715572814748e+04	2.940226005733212787e+03	8.153966834767927594e+02	2.268098619121734519e+05
1.553305323267072666e-03	3.550540054093276558e+04	2.880140110968241515e+03	8.057072158269460260e+02	2.177128130509460461e+05
1.586223204285366938e-03	3.432712909841235523e+04	2.821235137434510307e+03	7.961078633039284114e+02	2.089832351998094528e+05
1.619838686010041055e-03	3.318736245068724384e+04	2.763464483026774360e+03	7.865951985725490658e+02	2.006000884107555903e+05
1.654166552100628336e-03	3.208507719159605040e+04	2.706810009721924871e+03	7.771688896444354668e+02	1.925508864371238160e+05
1.689221899514206692e-03	3.101956023173217909e+04	2.651273131299057241e+03	7.678311726161379056e+02	1.848268105225522013e+05
1.725020145144853453e-03	2.998962307613715529e+04	2.596834071626171863e+03	7.585814779672912209e+02	1.774154667598580418e+05
1.761577032603788440e-03	2.899335370750582297e+04	2.543440230445597081e+03	7.494150773109372494e+02	1.702974211007067061e+05
1.798908639143220224e-03	2.802985868521070370e+04	2.491084884089022125e+03	7.403331067264870171e+02	1.634636631007558608e+05
1.837031382726912916e-03	2.709852478577349393e+04	2.439761457225001323e+03	7.313365970425061278e+02	1.569057322137891024e+05
1.875962029250603357e-03	2.619827529356038212e+04	2.389455307939600971e+03	7.224257479025665134e+02	1.506130513179592672e+05
1.915717699915417882e-03	2.532746388382484656e+04	2.340118358206651010e+03	7.135960328912635759e+02	1.445697904662009678e+05
1.956315878757565116e-03	2.448531061000654518e+04	2.291741147698880468e+03	7.048479744726442959e+02	1.387673890823689289e+05
1.997774420337589726e-03	2.367128793573918301e+04	2.244323569189270074e+03	6.961834403061305920e+02	1.331999287747443013e+05
2.040111557592579582e-03	2.288442212807105170e+04	2.197843484832696504e+03	6.876012805862245614e+02	1.278570590963181894e+05
2.083345909854779961e-03	2.212329576801205258e+04	2.152263698970624773e+03	6.790983011435511116e+02	1.227262498223913717e+05
2.127496491040134757e-03	2.138722801483753574e+04	2.107571029144735348e+03	6.706744513755472781e+02	1.177998937486533250e+05
2.172582718010372237e-03	2.067576486540431506e+04	2.063768992204772076e+03	6.623321134887644348e+02	1.130729762132925243e+05
2.218624419112281976e-03	1.998802715888943931e+04	2.020834120719754537e+03	6.540695597195339133e+02	1.085368685349676380e+05
2.265641842897974604e-03	1.932279466944290107e+04	1.978732308852085907e+03	6.458837449412296792e+02	1.041805646353765478e+05
2.313655667029933423e-03	1.867947309598615902e+04	1.937453701800817271e+03	6.377749972752504846e+02	9.999818237802565272e+04
2.362687007374795686e-03	1.805767154883425610e+04	1.896997115191758894e+03	6.297448651074111012e+02	9.598491300959320506e+04
2.412757427289825233e-03	1.745659746406148042e+04	1.857346604350690086e+03	6.217929197721284709e+02	9.213374945774087973e+04
2.463888947106213784e-03	1.687520047270166833e+04	1.818464691119716917e+03	6.139150282915750267e+02	8.843516387018239766e+04
2.516104053813336943e-03	1.631296183706398551e+04	1.780347405479909867e+03	6.061123436772649029e+02	8.488426197198922455e+04
2.569425710948245768e-03	1.576954484872528519e+04	1.742990762870540493e+03	5.983858405301715493e+02	8.147716791091227788e+04
2.623877368694733318e-03	1.524423603148866459e+04	1.706378635920930265e+03	5.907348647718137045e+02	7.820738201861087873e+04
2.679482974196439188e-03	1.473613131026219708e+04	1.670480476714160659e+03	5.831562815164433005e+02	7.506739196876973438e+04
2.736266982088478034e-03	1.424477792624554240e+04	1.635287310231623223e+03	5.756502574541641479e+02	7.205260815618421475e+04
2.794254365252289707e-03	1.376988569332673251e+04	1.600802656232425988e+03	5.682189951203307601e+02	6.916008728905777389e+04
2.853470625798387814e-03	1.331081319209319008e+04	1.567003414069961536e+03	5.608602195878271459e+02	6.638407540677128418e+04
2.913941806281861776e-03	1.286678233646177250e+04	1.533867105303743983e+03	5.535720778724273714e+02	6.371820338544708648e+04
2.975694501155571117e-03	1.243739797343472674e+04	1.501383206139216554e+03	5.463542841962567991e+02	6.115876909379682911e+04
3.038755868466027146e-03	1.202240987327644871e+04	1.469554223593262350e+03	5.392089153942768007e+02	5.870305620411833661e+04
3.103153641797168783e-03	1.162124212571478893e+04	1.438361648836218592e+03	5.321342669687365969e+02	5.634628316910250578e+04
3.168916142467233243e-03	1.123322513443201206e+04	1.407780031962240400e+03	5.251275704107918045e+02	5.408301732178399106e+04
3.236072291984112663e-03	1.085801404083790840e+04	1.377804969123585352e+03	5.181897017553062597e+02	5.191010569574191322e+04
3.304651624764658874e-03	1.049539294259298549e+04	1.348434609234292566e+03	5.113217999681072001e+02	4.982534185361600248e+04
3.374684301123556836e-03	1.014484536480465249e+04	1.319653840506706729e+03	5.045227574444232346e+02	4.782450003635294706e+04
3.446201120537424525e-03	9.805795124130228942e+03	1.291438428166787162e+03	4.977896098725991010e+02	4.590304028763331735e+04
3.519233535190044709e-03	9.477941271401847189e+03	1.263784265067557953e+03	4.911232350821834416e+02	4.405838545476811851e+04
3.593813663804625805e-03	9.161097402734609204e+03	1.236690809996461894e+03	4.845249702926237774e+02	4.228848428089318622e+04
3.669974305769219299e-03	8.854800871195124273e+03	1.210141696712856174e+03	4.779933192726444986e+02	4.058988630608019594e+04
3.747748955561452412e-03	8.558555915180069860e+03	1.184117193916864608e+03	4.715259798910033169e+02	3.895864894616347010e+04
3.827171817478984984e-03	8.272099919149379275e+03	1.158610507301437337e+03	4.651230527680571072e+02	3.739259380080976553e+04
3.908277820682117681e-03	7.995271837743471224e+03	1.133624762757976214e+03	4.587867172141178003e+02	3.589016163137981493e+04
3.991102634555192957e-03	7.727657688529696316e+03	1.109141151723109033e+03	4.525146878332672600e+02	3.444806418782010587e+04
4.075682684393532908e-03	7.468830941167960191e+03	1.085144137753928362e+03	4.463054112922262107e+02	3.306332393880498421e+04
4.162055167422817371e-03	7.218562444238737044e+03	1.061626157087746378e+03	4.401585562406887107e+02	3.173381954019829209e+04
4.250258069157961290e-03	6.976712960217841101e+03	1.038589291075989422e+03	4.340760195000547128e+02	3.045836495141608611e+04
4.340330180108637088e-03	6.742912432814162457e+03	1.016018542905971458e+03	4.280562548558808658e+02	2.923418779740381797e+04
4.432311112838861061e-03	6.516793923927829383e+03	9.938959579360462158e+02	4.220968250641107034e+02	2.805857785814599265e+04
4.526241319388085715e-03	6.298157494338835022e+03	9.722190305993428865e+02	4.161986132968872880e+02	2.693004418378047922e+04
4.622162109061505458e-03	6.086882667909600059e+03	9.509858198182629394e+02	4.103624319438596899e+02	2.584726207456535849e+04
4.720115666597336779e-03	5.882638979343386382e+03	9.301840117530504131e+02	4.045872500400059835e+02	2.480806477314146832e+04
4.820145070719144588e-03	5.685110780469249221e+03	9.097972102961796281e+02	3.988707019965008271e+02	2.381009572255503008e+04
4.922294313081310678e-03	5.494123631034495702e+03	8.898217878571094843e+02	3.932133265028903111e+02	2.285204524682592455e+04
5.026608317615998724e-03	5.309573203261122217e+03	8.702585253086832608e+02	3.876166049514330894e+02	2.193295474311896760e+04
5.133132960290130720e-03	5.131164665620121923e+03	8.510928441723937112e+02	3.820786683119063127e+02	2.105074727357951633e+04
5.241915089281041530e-03	4.958626509487475232e+03	8.323121380152578013e+02	3.765979795183928900e+02	2.020361952451591424e+04
5.353002545579732367e-03	4.791806552115447630e+03	8.139111313952694218e+02	3.711744904343571534e+02	1.939033780262796790e+04
5.466444184030696055e-03	4.630614371174862754e+03	7.958925009362322953e+02	3.658102281690995596e+02	1.861016913949127411e+04
5.582289894817666839e-03	4.474787165384171203e+03	7.782406891288284214e+02	3.605027336589701576e+02	1.786129445637699246e+04
5.700590625404708227e-03	4.324091409138826748e+03	7.609454986441442088e+02	3.552509258535200729e+02	1.714220257848047913e+04
5.821398402942216249e-03	4.178394346141373717e+03	7.440015413412792213e+02	3.500545885914326618e+02	1.645186519979810691e+04
5.944766357147824969e-03	4.037617534272886132e+03	7.274105902717094523e+02	3.449154309006012227e+02	1.578961800735106954e+04
6.070748743672167193e-03	3.901526928622310152e+03	7.111597840380959497e+02	3.398316496059426868e+02	1.515396115142646158e+04
6.199400967959818945e-03	3.769921685046700077e+03	6.952374561601915275e+02	3.348014845301857463e+02	1.454355528680998032e+04
6.330779609615908021e-03	3.642686002241838651e+03	6.796417037470540663e+02	3.298257560349276218e+02	1.395760357806616412e+04
6.464942447289089879e-03	3.519751765822625657e+03	6.643713903603878634e+02	3.249051757423825393e+02	1.339548725451992686e+04
6.601948484081890736e-03	3.400910717363960885e+03	6.494157718965738013e+02	3.200383826579530364e+02	1.285593186749532470e+04
6.741857973499477616e-03	3.285990130182549365e+03	6.347638942625243317e+02	3.152236145412502424e+02	1.233782263166847952e+04
6.884732445948405985e-03	3.174889000122158450e+03	6.204137410820015930e+02	3.104615922971382815e+02	1.184046857043332966e+04
7.030634735796891313e-03	3.067548121369098226e+03	6.063653016678404128e+02	3.057534018831403841e+02	1.136335786564705631e+04
7.179629009008595825e-03	2.963782333408472368e+03	5.926069820196956925e+02	3.010971082862221238e+02	1.090539587611879142e+04
7.331780791361950343e-03	2.863443098289299996e+03	5.791301732611575517e+02	2.964915392185466771e+02	1.046563681079035996e+04
7.487156997267587974e-03	2.766442324988500332e+03	5.659315976265472727e+02	2.919368763747518187e+02	1.004349804889594816e+04
7.645825959196438613e-03	2.672728497067479111e+03	5.530127255029411799e+02	2.874345675803465383e+02	9.638571022600091965e+03
7.807857457731475631e-03	2.582137122136435664e+03	5.403610941642377838e+02	2.829822758804357363e+02	9.249859421574472435e+03
7.973322752256328111e-03	2.494540469136371939e+03	5.279706433490794097e+02	2.785796121054657988e+02	8.876642826906701885e+03
8.142294612294233985e-03	2.409861715684483443e+03	5.158368672364872509e+02	2.742260960322835786e+02	8.518348107566866020e+03
8.314847349511189298e-03	2.328055986709511217e+03	5.039616320929784479e+02	2.699234033764187188e+02	8.174692280625879903e+03
8.491056850397209546e-03	2.248977265503066519e+03	4.923338504554487258e+02	2.656694741960304782e+02	7.844792506105267421e+03
8.671000609640279119e-03	2.172515717420565124e+03	4.809467501160148117e+02	2.614633563101915570e+02	7.528036651620564953e+03
8.854757764207504128e-03	2.098604352613011542e+03	4.697976407743967684e+02	2.573052488458216089e+02	7.223980745602612842e+03
9.042409128148579806e-03	2.027204037073875952e+03	4.588869908354757854e+02	2.531962896725497671e+02	6.932312401431428043e+03
9.234037228136720080e-03	1.958185253836059246e+03	4.482053268360506877e+02	2.491346931015929727e+02	6.652356126480060993e+03
9.429726339762870002e-03	1.891453559735101180e+03	4.377453776454584613e+02	2.451191505173966618e+02	6.383523006686901681e+03
9.629562524599030379e-03	1.826950544524454926e+03	4.275062166468662781e+02	2.411505343751950079e+02	6.125500319591925290e+03
9.833633668047030499e-03	1.764642040330998498e+03	4.174868036556572406e+02	2.372292779749322449e+02	5.877988584638289467e+03
1.004202951798940403e-02	1.704413252043245166e+03	4.076789711090594892e+02	2.333540088014958087e+02	5.640403791176299819e+03
1.025484172425938229e-02	1.646182972895299827e+03	3.980762850171495302e+02	2.295236080717116636e+02	5.412280808356907073e+03
1.047216387894729824e-02	1.589900277889581503e+03	3.886771630292192867e+02	2.257385274530693380e+02	5.193312888841760468e+03
1.069409155756119272e-02	1.535535299081057929e+03	3.794815876645335493e+02	2.219996122592034453e+02	4.983288353592401108e+03
1.092072236105970547e-02	1.482986365213547060e+03	3.704810504339016575e+02	2.183051721154348002e+02	4.781678967071196894e+03
1.115215595877575537e-02	1.432183651444273210e+03	3.616702112665993241e+02	2.146542519028730851e+02	4.588103919381916057e+03
1.138849413224978825e-02	1.383082763199253577e+03	3.530469571700236315e+02	2.110470640112320382e+02	4.402300987120182981e+03
1.162984081999205582e-02	1.335657558556937602e+03	3.446123837674422816e+02	2.074849150862679608e+02	4.224096398496139045e+03
1.187630216319339981e-02	1.289818055934974836e+03	3.363571350218957718e+02	2.039654775141837888e+02	4.053024586687618012e+03
1.212798655240480798e-02	1.245504217055192612e+03	3.282776577344671409e+02	2.004886022146820608e+02	3.888782549306491546e+03
1.238500467520621366e-02	1.202677344262106772e+03	3.203712366727160088e+02	1.970540453101291405e+02	3.731131266618824156e+03
1.264746956488544717e-02	1.161314527516825819e+03	3.126389391543078204e+02	1.936631318027719146e+02	3.579935625202451774e+03
1.291549665014883955e-02	1.121336188779636814e+03	3.050723580871875242e+02	1.903137384255783218e+02	3.434787843008502932e+03
1.318920380588532899e-02	1.082690703987544339e+03	2.976678862880287397e+02	1.870054392836026409e+02	3.295441811838349167e+03
1.346871140500627631e-02	1.045344344957899466e+03	2.904233061819802515e+02	1.837382020633721424e+02	3.161692300382623671e+03
1.375414237138396570e-02	1.009277007606309212e+03	2.833392438013182755e+02	1.805130977110969468e+02	3.033415299259955646e+03
1.404562223391196511e-02	9.744183656039144807e+02	2.764083485648898204e+02	1.773283301822160638e+02	2.910282920439663030e+03
1.434327918171109106e-02	9.407240287479811514e+02	2.696268311762345320e+02	1.741833462015679288e+02	2.792060700736882154e+03
1.464724412050539583e-02	9.081646032975733078e+02	2.629932559126383467e+02	1.710783602854122591e+02	2.678602229216501655e+03
1.495765073019278586e-02	8.767224240815158964e+02	2.565076336905549965e+02	1.680141321993134511e+02	2.569783881922220644e+03
1.527463552363575450e-02	8.463353856466368370e+02	2.501633433434009817e+02	1.649889663124676247e+02	2.465328768777999358e+03
1.559833790669801906e-02	8.169653165109513111e+02	2.439566614608828843e+02	1.620021436869162414e+02	2.365045551505761523e+03
1.592890023955338338e-02	7.885866033364686700e+02	2.378868224781464846e+02	1.590542458754709401e+02	2.268803031334000025e+03
1.626646789929399317e-02	7.611837028658723057e+02	2.319532230288463950e+02	1.561456420783133296e+02	2.176502903322228121e+03
1.661118934386526108e-02	7.347018093171274131e+02	2.261500724598278111e+02	1.532750079502584128e+02	2.087902953050670021e+03
1.696321617735579643e-02	7.091080968533161695e+02	2.204739286991789697e+02	1.504415906977786506e+02	2.002843451611092405e+03
1.732270321667098503e-02	6.843802490773763338e+02	2.149239734320498485e+02	1.476458579951865033e+02	1.921216806999499113e+03
1.768980855961942850e-02	6.605045708893280789e+02	2.094996439073286183e+02	1.448881025116701835e+02	1.842931660362187131e+03
1.806469365444235767e-02	6.374327334910848322e+02	2.041955425827268300e+02	1.421670363931206396e+02	1.767790118673930465e+03
1.844752337081655841e-02	6.151365059487795861e+02	1.990085647038515617e+02	1.394819848956255726e+02	1.695652459014190299e+03
1.883846607236187159e-02	5.935964468463561161e+02	1.939378560187435596e+02	1.368333771436281268e+02	1.626426840963239101e+03
1.923769369068539445e-02	5.728004729611999437e+02	1.889832079105220544e+02	1.342217629901899443e+02	1.560042317816169998e+03
1.964538180099485026e-02	5.527059981281362298e+02	1.841392334365805539e+02	1.316455630767892160e+02	1.496320034243092323e+03
2.006170969931423895e-02	5.332887408830172262e+02	1.794032952101178182e+02	1.291042384572487265e+02	1.435151342381102950e+03
2.048686048133601528e-02	5.145317667279640546e+02	1.747743767293625581e+02	1.265980313170159661e+02	1.376452269292456549e+03
2.092102112294418406e-02	4.964243996963488712e+02	1.702525137900635741e+02	1.241276418034404685e+02	1.320163656433150209e+03
2.136438256244391209e-02	4.789291418030725254e+02	1.658325365367678614e+02	1.216914967096173257e+02	1.266135849848916678e+03
2.181713978453380873e-02	4.620251061749815449e+02	1.615122153362038375e+02	1.192892341554577058e+02	1.214271743755939269e+03
2.227949190605761978e-02	4.456975439931805454e+02	1.572904492065682120e+02	1.169208863448548499e+02	1.164506283237239131e+03
2.275164226357336353e-02	4.299370094937344220e+02	1.531673954143704748e+02	1.145871931821176446e+02	1.116787406181674669e+03
2.323379850277806913e-02	4.147105098708595960e+02	1.491379982889693849e+02	1.122864589514267948e+02	1.070984020664991249e+03
2.372617266982774559e-02	4.000000757632349746e+02	1.452004203484544576e+02	1.100184955299949507e+02	1.027019841253578306e+03
2.422898130459259780e-02	3.857928638711181293e+02	1.413536728011236789e+02	1.077834328703592632e+02	9.848335534218931571e+02
2.474244553588843265e-02	3.720805052149847825e+02	1.375978712615951167e+02	1.055819066063038463e+02	9.443867852478007308e+02
2.526679117872631872e-02	3.588339932063510673e+02	1.339281820057605614e+02	1.034121253373866125e+02	9.055635192585855293e+02
